961
1600
2401
3600
5776
8836
8464
4225
361
1024
5329
7569
4900
1600
324
81
9
9
49
169
729
2209
2601
1156
0
1521
4489
5625
2809
196
225
784
961
1024
961
841
1156
1849
1156
36
1024
5041
9604
9409
4096
225
484
1936
3136
4356
4489
4489
5041
5041
2401
36
2025
8836
15376
14641
7225
1296
1
529
1849
3721
5041
6561
8464
8836
4900
576
841
6561
12996
12544
6241
1600
225
4
400
1225
2209
3844
6400
7225
4096
529
729
4761
7921
5929
1849
169
4
121
400
729
961
1764
3364
3721
1600
4
1521
5476
7396
4489
729
25
441
900
1296
1521
1681
2304
3249
2601
484
361
3969
8836
9801
5041
676
64
729
1600
2601
3025
3136
4096
5041
3364
484
676
5476
11236
11449
5776
1024
0
400
1225
2209
2916
3721
5476
6241
3481
361
784
5625
11025
10404
4489
729
0
289
900
1764
2401
3364
5329
5776
3025
169
1296
6400
10404
8100
2809
256
36
400
1024
1764
2304
3481
5184
4900
1936
1
2809
7921
9801
6084
1444
49
121
576
1156
1764
2209
3600
5329
4356
1225
81
3249
8100
9025
4624
784
1
256
676
1225
1600
2025
3364
4624
3136
529
400
4225
8836
8649
3844
441
36
484
1156
1849
2209
2704
3844
4761
2500
81
1369
6241
10816
9409
3600
289
121
729
1681
2601
3136
3969
5329
5184
2025
0
2304
8100
11881
9025
3249
324
36
529
1521
2401
3249
4761
6400
5476
2025
0
2500
8100
10404
6889
2025
144
36
361
1024
1600
2209
3844
5929
4761
1369
81
3025
7569
8281
4225
676
1
196
576
1089
1444
1849
3136
4356
3025
484
484
4356
9025
8464
3481
256
121
625
1296
2025
2304
2809
3969
4225
2025
36
1600
7056
12100
10000
3481
169
196
961
1936
2916
3364
4489
6400
5625
1936
25
3600
10609
13924
9216
2500
100
196
900
1681
2401
3249
5329
7569
5776
1521
169
4489
11025
11881
5929
1024
1
225
729
1369
2025
2916
4900
6241
3969
529
676
5476
11236
10201
3844
324
81
529
1156
1681
2209
3025
5041
5329
2304
4
2304
8281
12321
8649
2401
36
289
961
1764
2500
3025
4225
5929
4900
1444
100
4096
10816
12769
7225
1444
1
361
1089
2025
2704
3364
5329
6889
4761
841
529
5625
12100
11881
5625
961
0
324
1089
1936
2704
3721
5625
6561
3721
324
1089
6889
12996
11025
4096
361
64
576
1444
2209
2704
3969
5929
5625
2209
1
3025
9604
12769
8464
2209
36
256
841
1681
2304
2916
4624
6724
5329
1444
144
4356
10816
12100
6241
1024
1
361
961
1681
2304
3136
4900
6241
3844
529
676
5776
11881
11236
4624
441
81
625
1296
2116
2601
3481
5329
5776
2601
25
2116
8464
13225
10201
3136
100
256
1024
1936
2601
3136
4624
6400
5184
1444
121
4356
11664
13225
7396
1444
0
361
1225
2116
2809
3600
5476
7225
4624
729
625
6084
12769
12321
5329
676
16
441
1156
1849
2401
3600
5776
6400
3249
169
1521
7569
12769
10000
3136
169
144
729
1521
2116
2704
4225
6241
5184
1521
121
4225
10816
12321
6561
1156
0
441
1156
1936
2601
3364
5329
6724
4225
529
784
6241
12996
12100
5041
576
64
625
1444
2209
2809
3844
5625
6084
2916
81
1849
8281
13456
10816
3600
225
144
841
1681
2500
3136
4624
6561
5625
1764
64
4096
11025
13225
7569
1600
4
324
1024
1849
2601
3249
5184
6889
5041
1024
441
5476
12321
12321
5476
676
25
441
1156
1936
2500
3481
5476
6084
3136
144
1521
7569
12996
10609
3600
169
196
841
1764
2500
3025
4225
6241
5476
1681
81
4225
11236
13225
7744
1600
1
400
1089
1936
2601
3364
5184
7056
4900
900
484
5625
12321
12321
5625
784
16
441
1089
1936
2601
3600
5625
6561
3481
225
1225
7225
13225
11449
3969
256
121
784
1681
2401
2916
4225
6241
5476
1849
25
3721
11025
13456
8281
1849
16
361
1089
2025
2704
3481
5184
6889
5041
1089
400
5476
12544
12544
5625
729
25
529
1225
1849
2500
3481
5476
6400
3136
121
1600
7744
12996
10404
3481
169
196
841
1681
2401
2916
4356
6241
5329
1521
100
4225
11236
13225
7225
1296
0
441
1225
2116
2601
3364
5184
6724
4624
676
625
6084
12769
12544
5329
676
36
625
1369
2116
2601
3481
5625
6400
3249
169
1521
7569
13456
10816
3721
225
144
784
1681
2401
2809
4356
6400
5329
1681
64
4096
11025
12996
7569
1600
4
361
1089
1936
2601
3249
5184
6889
4900
961
441
5476
12100
12321
5625
784
16
484
1225
1936
2500
3364
5329
6400
3481
225
1225
7225
13225
11449
3969
256
121
784
1681
2304
2809
4225
6241
5625
1849
25
3721
10816
13456
8281
1849
9
324
1024
1936
2500
3249
5041
7056
5329
1156
324
5184
11881
12544
6241
900
4
400
1089
1849
2601
3364
5329
6400
3844
400
900
6561
12769
11664
4624
400
81
676
1521
2304
2704
3844
5776
5776
2401
4
2601
9216
13456
9801
2809
49
324
1024
1764
2401
3025
4624
6724
5476
1600
121
4489
11449
12996
7056
1369
0
441
1089
1936
2500
3364
5329
6889
4489
625
676
6241
12544
12100
5184
576
49
576
1296
2025
2601
3721
5776
6084
2809
81
1936
8281
13225
10609
3364
169
225
900
1764
2401
2916
4356
6400
5625
1681
100
4356
11449
12996
7225
1444
0
441
1156
2025
2601
3249
5041
6724
4624
729
529
5776
12321
12100
5329
625
36
529
1296
2025
2704
3600
5625
6241
3136
121
1681
7921
13225
10816
3600
169
196
841
1681
2401
2916
4356
6241
5329
1764
49
4096
11449
13456
7744
1681
1
400
1225
2025
2500
3249
5184
6889
4900
961
441
5476
12100
12544
5776
784
25
484
1225
1936
2601
3600
5476
6241
3481
225
1296
7225
13225
11449
4096
289
121
784
1681
2401
2916
4225
6241
5476
1849
25
3721
11025
13456
8281
1849
9
324
1089
1936
2500
3249
5184
7056
5184
1156
324
5329
12100
12544
5929
841
9
441
1156
1849
2500
3364
5329
6400
3721
324
1089
6889
13225
11664
4225
324
144
729
1444
2209
2704
4096
6241
5625
2116
9
3364
10201
13456
8649
2209
25
324
1024
1849
2500
3249
5041
6889
5329
1296
225
5041
11881
12544
6241
961
9
400
1024
1936
2500
3249
5329
6561
3969
484
784
6400
12769
11881
4761
441
64
625
1369
2116
2704
3721
5625
6084
2704
36
2209
8836
13456
10000
3025
121
256
1024
1936
2500
2916
4356
6400
5329
1521
144
4624
11449
12996
6889
1296
0
400
1089
2025
2601
3364
5476
6889
4225
625
676
6241
12769
12100
5041
529
49
576
1296
2025
2601
3721
5625
6084
2809
64
1936
8281
13225
10201
3364
144
225
900
1764
2401
3025
4489
6241
5329
1521
100
4356
11236
13225
7056
1296
0
400
1156
1936
2704
3364
5184
6889
4624
729
576
5929
12544
12100
5476
676
36
529
1296
2116
2601
3600
5476
6241
3025
121
1521
7744
13225
10609
3481
169
196
841
1764
2500
3025
4356
6084
5184
1600
81
3969
10816
12996
7569
1521
0
400
1089
1849
2601
3249
5041
6724
4624
900
484
5476
12100
12321
5625
784
25
529
1296
2025
2500
3364
5329
6400
3364
196
1296
7396
13225
11025
3969
256
144
784
1681
2401
2916
4225
6241
5476
1681
64
3844
10816
13225
7921
1764
4
361
1156
1936
2601
3249
4900
6889
5041
1089
361
5329
12100
12321
5929
841
9
484
1156
1936
2500
3364
5184
6400
3721
324
1089
6889
12996
11664
4356
361
100
729
1600
2304
2809
3969
5929
5625
2209
4
3136
10000
13456
8836
2209
16
361
1089
1849
2401
3136
4900
6724
5041
1296
225
4900
11881
12769
6241
1024
4
441
1156
1936
2500
3364
5476
6561
3969
484
841
6561
12996
11881
4624
441
81
625
1369
2116
2704
3721
5625
5929
2601
25
2304
8836
13225
9604
2809
81
256
841
1600
2401
3025
4489
6561
5329
1600
100
4225
11236
12996
7225
1444
0
441
1156
1936
2500
3249
5041
6724
4489
841
484
5625
12321
12544
5625
729
25
529
1296
2025
2601
3600
5625
6241
3136
144
1600
7744
13225
10816
3600
169
196
784
1600
2304
2809
4489
6400
5329
1600
64
3969
10816
12996
7569
1521
1
400
1024
1849
2500
3249
5184
6889
4900
961
441
5476
11881
12100
5625
784
16
484
1225
2025
2601
3481
5476
6241
3364
196
1296
7396
13225
11236
3969
256
169
841
1681
2401
2916
4225
6084
5476
1849
36
3844
10816
13225
8100
1849
9
361
1156
1936
2601
3136
5041
6889
4900
1024
324
5184
11881
12321
5929
841
16
484
1156
1936
2500
3364
5476
6561
3600
256
1296
7225
13225
11236
3969
289
144
729
1521
2304
2809
4096
6084
5476
1936
25
3481
10201
12996
8464
2025
16
361
1089
1849
2500
3364
5184
7056
5041
1024
400
5329
12100
12321
5776
841
9
484
1225
1849
2401
3249
5329
6400
3844
441
900
7056
13689
12321
4356
289
121
625
1444
2304
2809
3844
5929
5776
2209
0
2809
9216
13225
9604
2809
64
324
1024
1764
2500
3249
4900
6561
5184
1444
169
4624
11449
12996
6889
1225
1
484
1225
2025
2601
3364
5184
6724
4225
576
676
6241
12769
12321
5041
529
64
625
1369
2116
2601
3600
5329
5929
2809
64
1849
7921
12996
10201
3364
169
225
961
1764
2304
2809
4356
6561
5329
1521
100
4225
11025
12996
7225
1296
1
441
1089
1936
2401
3249
5476
7056
4489
676
676
5929
12544
12100
5184
529
49
484
1156
2209
2916
3721
5329
5776
2809
81
1681
7744
12769
10201
3481
196
169
841
1764
2304
2809
4225
6084
5329
1849
49
4096
11236
13456
7569
1444
0
400
1089
1936
2601
3249
5184
7056
4900
841
529
5776
12100
12100
5625
784
64
784
1296
1681
2304
3364
5476
6241
3249
196
1296
7396
12996
11236
3969
289
144
784
1681
2601
3136
4225
5776
5329
1764
49
3721
10609
12996
7921
1764
4
400
1089
1936
2500
3025
5041
6889
4900
1089
361
5329
11881
12321
5929
961
4
529
1225
2025
2601
3364
5184
6400
3721
289
1225
7056
12769
11236
4225
324
121
900
1764
2209
2500
3721
5929
5625
2025
1
3136
10201
13456
8649
2116
16
361
1024
1849
2500
3249
5041
6889
5041
1024
289
4900
11664
12544
6084
900
4
400
1024
1849
2601
3481
5329
6400
3844
484
784
6241
12544
11449
4624
441
64
576
1444
2209
2601
3721
5776
5776
2401
9
2401
9025
13225
9604
2809
81
256
961
1764
2401
2916
4225
6241
5329
1764
36
3844
10816
12996
7744
1600
0
361
961
1849
2601
3136
4900
6889
5041
1089
361
5476
12100
12544
5776
729
9
324
961
1849
2704
3600
5329
6241
3600
361
841
6084
12321
11664
4761
484
81
676
1444
2116
2601
3721
5625
5776
2500
25
2209
8836
13225
9801
3025
121
225
900
1849
2500
3025
4624
6400
5476
1681
64
4225
11449
12996
6889
1296
0
400
961
1764
2500
3025
4900
6724
4624
841
484
5476
11881
11881
5625
784
16
529
1296
2116
2601
3249
5041
6241
3481
169
1521
7569
12996
10816
3844
225
169
841
1764
2500
2809
3844
5476
5329
1936
16
3600
10404
12996
7744
1681
9
324
961
1681
2209
2916
4900
6889
5329
1296
225
4900
11664
12544
6241
961
4
441
1089
1849
2401
3364
5184
6400
3844
400
784
6241
12769
11881
4624
441
100
729
1600
2304
2500
3481
5625
5776
2304
1
2809
9216
13225
9604
2704
49
324
961
1764
2500
2916
4356
6241
5476
1764
64
4096
11025
13225
7396
1521
1
400
1089
1936
2500
3249
5041
6889
4900
961
484
5929
12769
12544
5625
729
25
576
1369
2116
2500
3364
5329
6400
3481
169
1369
7396
13225
11025
3844
256
144
841
1600
2209
2704
3969
6084
5476
1936
36
3721
10404
12996
8100
1849
9
361
1089
1849
2500
3249
5184
6889
5041
1024
400
5476
11881
12321
5776
784
16
484
1156
1849
2500
3481
5476
6241
3481
256
1296
7225
12996
11025
3844
196
196
841
1521
2025
2601
3844
5929
5625
1936
25
3721
10609
13225
8100
1764
4
361
1024
1849
2601
3136
5184
7225
4900
841
441
5329
11664
12100
5929
900
9
441
1156
1849
2500
3364
5184
6561
3844
400
900
6400
12544
11664
4761
484
81
676
1521
2209
2704
3721
5776
5929
2500
16
2209
8649
12996
9801
2916
81
324
900
1681
2304
2809
4356
6400
5476
1600
100
4489
11236
12996
7056
1296
0
400
1089
1936
2500
3249
5329
6889
4356
625
625
5929
12100
11881
5184
625
25
529
1296
2116
2601
3481
5329
5929
3025
121
1600
7744
12996
10609
3481
169
196
784
1600
2304
2916
4489
6400
5329
1521
100
4096
11236
12996
7225
1444
0
400
1089
2025
2601
3249
5041
6889
4761
841
576
5929
12321
12100
5184
625
25
529
1296
2025
2601
3481
5329
6084
3249
169
1296
7225
12769
10816
3844
256
144
784
1600
2209
2809
4096
6084
5476
1764
64
4096
10816
12996
7569
1600
4
361
1089
1936
2601
3364
5184
7056
4900
961
400
5329
11881
12769
6561
1024
36
961
1849
2209
2304
3136
5041
6084
3136
169
1444
7396
12996
10816
3721
225
169
784
1600
2304
2704
4096
5929
5184
1764
49
3844
10816
13225
7921
1681
1
400
1225
2116
2601
3364
5041
6889
4761
900
441
5476
12100
12321
5776
841
16
529
1225
1849
2500
3364
5329
6241
3364
256
1156
7056
13225
11236
4096
289
144
841
1849
2304
2601
3844
5929
5625
2025
9
3364
10000
12769
8281
2025
25
361
1024
1936
2601
3249
4900
6724
4761
961
324
5041
11664
12321
5929
961
4
441
1156
1936
2500
3364
5041
6400
3844
441
784
6241
12769
11881
4761
441
100
784
1600
2304
2500
3481
5625
5625
2304
1
2500
8649
12769
9801
3025
100
256
1089
1936
2601
3136
4489
6241
5184
1521
121
4489
11236
12544
6889
1225
0
441
1225
2116
2809
3481
5184
6400
3969
529
729
6084
11881
11449
5329
676
36
576
1369
2025
2601
3600
5329
5776
2916
81
1681
7569
12769
10000
3249
196
169
841
1764
2401
2809
4225
6084
5041
1444
121
4225
11025
12769
7056
1369
0
484
1296
2116
2704
3364
5041
6241
4225
676
529
5625
12100
11881
5329
729
25
529
1296
2209
2704
3364
5041
5929
3136
144
1444
7396
12769
10609
3600
196
144
841
1681
2401
2809
4225
6084
5041
1521
100
4096
10816
12769
7056
1444
0
441
1156
1936
2704
3481
5184
6561
4225
676
625
5776
12100
11664
5184
529
49
529
1225
2025
2601
3600
5625
6084
2916
81
1681
7744
12769
10404
3364
169
169
841
1681
2401
2809
4096
5776
5041
1521
100
4096
10816
12769
7225
1369
0
484
1225
2025
2500
3249
5041
6561
4356
729
576
5776
12100
11881
5184
576
25
441
1225
2116
2809
3721
5329
5929
3025
144
1521
7569
13225
10816
3600
169
196
961
1764
2500
2916
4096
5929
5041
1444
100
4096
10816
12544
7056
1444
0
400
1225
2116
2704
3249
4900
6400
4225
729
529
5625
11664
11664
5329
729
25
576
1296
2116
2601
3481
5184
5929
2916
121
1521
7396
12769
10201
3481
225
144
900
1849
2601
2916
3969
5625
4900
1444
81
4096
10816
12769
7396
1521
1
400
1296
2209
2809
3249
4900
6561
4489
784
484
5476
11881
11664
5625
841
16
529
1296
2209
2809
3481
5184
5776
3136
225
1225
6889
12544
11025
4096
324
144
841
1764
2401
2809
3844
5476
4900
1764
36
3481
10000
12769
7744
1681
4
324
1024
2025
2601
3249
4761
6400
4624
961
324
5041
11449
12100
5929
900
9
529
1296
2116
2601
3249
4900
6241
3721
324
1024
6561
12544
11236
4489
361
121
784
1681
2304
2704
3600
5329
5184
2025
0
2601
9025
12996
9409
2704
49
324
1156
2025
2704
3249
4356
5929
4624
1225
169
4356
10816
12100
6400
1089
4
484
1296
2116
2601
3136
4900
6241
3844
441
729
5929
11881
11236
4624
484
81
676
1444
1936
2401
3364
5041
5476
2500
36
1849
7921
12544
9604
2916
121
225
961
1849
2304
2704
3969
5625
4761
1369
100
3969
10404
12100
6724
1225
0
484
1156
1936
2500
3136
4761
6241
4096
625
625
5625
11664
11236
4900
576
49
576
1296
2025
2601
3481
5041
5329
2601
64
1521
6889
12100
10000
3364
196
196
900
1681
2304
2704
3969
5625
4761
1444
100
4096
10404
12100
6561
1296
0
484
1156
1936
2401
3025
4761
6084
3969
576
625
5476
11025
10816
4761
576
49
576
1225
1936
2401
3249
4900
5625
2704
81
1521
7056
11881
9604
3249
169
169
841
1681
2209
2500
3600
5329
4624
1521
36
3364
9409
11881
7396
1681
4
400
1156
2025
2500
3025
4356
5929
4096
784
400
4761
10609
11025
5476
841
9
484
1225
1936
2401
3136
4761
5776
3364
361
841
5929
11449
10609
4356
361
100
676
1444
2209
2601
3249
4900
5041
2116
4
2209
7921
11881
8836
2601
64
289
1024
1764
2209
2601
3969
5625
4624
1296
100
3844
10000
11449
6400
1225
0
361
1089
1849
2500
3025
4761
6241
4096
529
676
5625
11236
10816
4761
529
49
576
1369
1936
2401
3025
4624
5184
2704
121
1369
6724
11664
9801
3364
196
169
841
1600
2209
2601
3721
5329
4761
1521
36
3364
9604
12100
7396
1600
1
441
1156
1936
2209
2809
4225
5929
4356
1024
324
4761
10816
11025
5329
729
16
441
1156
1849
2401
2916
4489
5625
3249
324
900
6084
11664
10404
3969
324
121
676
1444
2116
2401
3364
5041
4900
1936
0
2500
8464
11881
8281
2304
36
324
1024
1764
2304
2704
4096
5776
4356
961
196
3969
9801
11236
6084
1156
1
441
1156
2025
2401
2916
4356
5776
3969
676
484
5476
11236
10816
4761
529
49
576
1225
1849
2209
2916
4624
5476
2809
121
1296
6561
11664
9801
3481
196
169
841
1681
2209
2500
3481
5184
4761
1681
36
3364
9604
12100
7396
1681
4
400
1024
1849
2304
2809
4225
5776
4356
1024
225
4356
10201
11025
5625
900
16
484
1225
1849
2304
2916
4489
5476
3136
256
900
5929
11236
10000
3721
289
121
729
1444
2025
2401
3364
5041
4761
1764
4
2704
8100
11236
8100
2304
36
324
1024
1849
2304
2809
4096
5476
4096
961
196
4225
10201
11236
5776
961
4
484
1156
1936
2304
2916
4489
5776
3600
484
676
5329
11025
10404
4356
441
49
576
1225
1849
2401
3136
4761
5184
2500
81
1600
7056
11664
9216
3025
121
225
841
1521
2116
2500
3600
5184
4489
1369
49
3364
9409
11664
7056
1444
0
484
1156
1764
2209
2601
4096
5776
4225
900
324
4624
10201
10816
5184
729
25
529
1225
1849
2116
2704
4489
5625
3249
289
900
5929
11236
10000
3844
289
121
729
1444
2025
2500
3364
4900
4624
1849
1
2500
7921
11449
8100
2304
49
289
1024
1764
2401
2809
3969
5476
4225
1089
169
4096
10000
11025
5476
961
4
400
1024
1764
2304
2916
4489
5776
3600
441
676
5476
10816
10201
4356
400
81
625
1225
1849
2209
3136
4624
5041
2304
49
1600
6724
11236
9025
2916
144
196
841
1600
2209
2500
3600
5329
4900
1764
25
3481
10000
11881
7225
1600
4
324
961
1600
2116
2809
4225
5776
4225
841
324
4761
10404
10816
5184
676
36
484
1156
1936
2500
3025
4489
5476
3136
289
841
5776
11025
10000
3969
361
100
676
1369
1936
2304
3364
5041
4900
1936
0
2401
8100
11236
8100
2209
49
256
900
1681
2209
2500
3721
5476
4489
1296
144
4096
10000
11025
5776
961
4
441
1089
1764
2304
2916
4356
5625
3600
484
625
5476
11025
10404
4225
400
81
625
1296
1936
2401
3025
4624
5041
2401
49
1681
7056
11449
9025
3025
144
169
784
1600
2209
2704
3721
5329
4489
1444
49
3481
9604
11881
6889
1521
1
400
1089
1849
2304
2809
4356
5929
4225
900
324
4624
10404
10816
5184
784
9
484
1156
1764
2304
2916
4489
5625
3136
289
841
5776
11236
10201
3844
289
121
729
1369
2025
2401
3249
4900
4900
1936
0
2401
8100
11664
8281
2304
36
324
961
1681
2209
2704
3969
5476
4489
1225
144
4096
10201
11449
6084
1024
1
441
1156
1849
2401
2916
4624
5929
3844
529
676
5476
11236
10609
4624
529
64
576
1156
1849
2401
3249
4900
5329
2500
64
1296
5776
10201
9025
3364
324
49
529
1296
1936
2401
3364
5184
4761
1681
25
3136
9409
12100
7744
1764
1
441
1089
1936
2601
3025
4624
6241
4761
1156
225
4624
11025
11449
5625
900
9
484
1089
1764
2209
2809
4489
5929
3844
484
784
5776
11236
10609
4489
441
81
625
1369
2116
2401
3249
4900
5329
2401
16
2116
8100
12544
9409
2704
81
256
961
1681
2401
2809
4096
5776
4900
1444
121
4225
10816
12321
6724
1296
0
361
1156
2025
2601
3249
5041
6561
4356
729
576
5625
11881
11664
5041
576
49
529
1225
1936
2401
3364
5184
5776
2809
121
1521
7396
12544
10201
3364
169
196
784
1600
2304
2809
4096
5929
5041
1444
121
4225
10816
12769
7225
1369
1
529
1369
2116
2601
3249
4900
6561
4489
676
625
5929
12100
11664
5184
576
49
576
1225
1936
2601
3481
5184
5929
3025
121
1521
7396
12769
10404
3481
169
169
784
1681
2401
2916
4225
5929
4900
1444
81
3844
10609
12769
7225
1521
0
441
1156
1936
2601
3025
4761
6400
4761
900
484
5476
11881
11881
5476
729
36
529
1296
2116
2601
3364
5041
5776
3136
196
1156
6724
12544
10816
4096
289
121
841
1600
2401
2809
3969
5625
5184
1849
25
3600
10201
12769
7921
1849
9
361
1089
2025
2601
3136
4900
6724
4761
961
400
5329
11449
11881
5929
961
9
484
1225
2025
2500
3136
5041
6241
3844
361
961
6724
12769
11664
4489
400
144
841
1600
2209
2704
3600
5625
5329
2025
0
2704
8836
12769
9216
2601
64
289
1089
1849
2500
3025
4489
6241
5184
1369
169
4624
11025
12321
6561
1156
1
441
1156
2025
2601
3136
4761
6241
4096
529
729
6084
12100
11449
4761
484
64
625
1296
2025
2500
3249
5184
5625
2704
36
1849
7921
12544
9604
2916
121
196
841
1764
2401
2916
4096
5776
4900
1521
81
3844
10404
12321
6889
1369
0
484
1156
1936
2500
3025
4624
6084
4225
676
529
5476
11449
11236
5184
625
36
529
1225
1936
2500
3249
4900
5625
3025
144
1369
6889
11664
9801
3481
196
169
784
1600
2209
2500
3364
5041
4624
1600
36
3249
9216
11449
7225
1600
0
441
1024
1764
2209
2601
3969
5476
4096
900
256
4225
10000
10816
5329
676
25
484
1089
1764
2401
2809
4096
5041
3025
324
729
5476
10404
9409
3721
361
100
625
1225
1849
2209
3025
4489
4489
1936
9
1936
7225
10609
7744
2304
64
256
784
1444
2025
2304
3364
4761
4225
1296
49
3136
8464
10201
6084
1156
1
400
961
1521
1936
2304
3600
4761
3481
729
289
3844
8836
9216
4489
625
25
441
961
1521
1849
2209
3364
4489
2809
324
576
4356
8836
8281
3364
289
81
529
961
1444
1764
2304
3481
4096
2209
121
900
4900
8836
7744
2809
169
121
625
1156
1521
1764
2401
3844
3844
1521
0
1764
5929
8281
5929
1681
16
225
676
1156
1521
1849
2704
3969
3364
1024
36
2304
6561
8281
4900
961
4
324
729
1089
1369
1764
2809
3969
3025
729
121
2809
7056
7744
3969
625
16
324
729
1225
1521
1764
2916
3969
2704
441
361
3481
7396
7569
3364
400
36
400
841
1296
1600
2025
3136
3969
2304
225
676
4356
8100
7225
2809
196
81
441
841
1296
1600
2304
3600
4096
2025
64
1089
4900
8100
6561
2116
100
121
484
1024
1369
1681
2500
3721
3481
1296
1
2025
6241
8100
5184
1225
9
256
625
1089
1444
1764
2601
3721
3249
1369
1
2304
6889
8464
4624
841
0
225
576
1089
1444
1600
2601
3844
3364
961
144
3136
7396
7921
4096
576
16
400
784
1225
1600
1936
3025
4225
3025
576
324
3721
7921
7744
3600
441
25
361
784
1225
1600
2116
3364
4096
2401
256
576
4096
8100
7396
2916
256
64
400
841
1296
1681
2304
3600
3969
2025
81
900
4489
7921
6724
2401
169
81
441
961
1369
1681
2304
3600
3721
1600
25
1296
5184
7921
5776
1600
36
169
484
961
1296
1681
2500
3721
3481
1296
9
2304
6400
7921
4900
1089
0
256
676
1089
1369
1681
2601
3969
3136
841
64
2401
6241
7396
4096
841
0
225
625
1156
1444
1681
2601
3721
3025
729
121
2809
6889
7396
3721
576
4
289
625
1089
1600
2025
2916
3481
2401
484
256
3136
6889
7056
3249
441
16
289
729
1156
1444
1936
3136
3844
2401
289
441
3721
7225
6724
2809
289
36
361
784
1156
1521
2116
3364
3721
1764
64
841
4096
6889
6084
2209
100
144
441
676
1024
1369
2116
3364
3249
1369
4
1369
5041
7056
5041
1369
9
225
576
900
1225
1444
2209
3364
3136
1089
9
1936
5476
7056
4489
1024
0
256
576
961
1225
1600
2304
3364
2809
961
25
2116
5929
7225
4096
729
4
256
484
900
1296
1681
2500
3481
2809
784
49
2304
6241
7396
3969
729
1
256
576
1024
1369
1681
2601
3600
2809
676
121
2704
6400
6889
3364
625
1
256
576
961
1296
1681
2704
3721
2809
576
196
2916
6241
6561
3249
484
4
256
576
1024
1225
1681
2809
3721
2304
289
400
3136
6561
6400
2704
256
36
361
729
1089
1369
1849
2916
3481
1936
144
625
3721
6889
6084
2209
121
81
400
729
1089
1369
1936
3025
3249
1444
25
1089
4489
6889
5184
1521
49
121
441
900
1225
1521
2209
3364
3136
1089
4
1764
5184
7056
4489
1024
1
196
441
841
1225
1521
2401
3481
3025
961
25
1936
5625
6889
4225
900
0
225
576
1024
1296
1600
2500
3600
2916
729
81
2500
6241
6889
3844
729
1
289
784
1156
1225
1444
2500
3481
2704
625
144
2809
6561
7056
3481
484
9
256
529
900
1296
1764
2916
3969
2704
441
256
3025
6561
6889
3136
441
9
324
841
1156
1296
1600
2704
3600
2304
324
361
3249
6724
6400
2704
289
36
324
676
1156
1444
2025
3136
3600
1936
81
784
4096
7056
6084
2116
121
81
361
784
1089
1444
2116
3249
3364
1521
36
1089
4761
7396
5476
1600
36
169
529
841
1225
1521
2304
3481
3249
1156
1
1936
5625
7396
4761
1089
1
225
576
1024
1369
1681
2500
3721
3136
961
49
2500
6400
7396
3969
729
1
289
625
961
1296
1600
2601
3600
2809
729
100
2601
6400
7056
3721
676
1
256
576
1089
1369
1764
2809
3844
2704
529
169
2916
6889
7396
3600
484
16
324
676
1089
1521
1936
2704
3600
2500
400
361
3481
7056
6724
2809
289
25
324
676
1089
1521
1936
3025
3600
2025
196
529
3844
7056
6084
2116
144
25
196
576
1156
1600
2304
3364
3600
1681
36
1156
4761
7396
5476
1681
36
169
529
900
1225
1521
2116
3364
3249
1156
4
1849
5625
7396
4624
1024
0
196
529
961
1369
1681
2401
3364
2809
961
16
1849
5625
7569
4761
961
0
256
625
1024
1296
1600
2704
3721
2916
784
81
2401
6241
7396
4096
729
4
289
625
1024
1296
1681
2704
3721
2809
676
169
2916
6889
7056
3481
529
4
256
676
1089
1444
1764
2704
3481
2401
441
225
2601
6084
6561
3136
441
1
196
576
1024
1296
1764
2916
3721
2304
324
361
3025
6241
5776
2500
324
1
196
576
1024
1369
1936
3136
3481
1764
100
625
3481
6084
5329
2025
169
36
256
625
1024
1369
2025
3136
3249
1521
25
1225
4489
6400
4489
1225
36
100
400
784
1156
1521
2116
3025
3025
1024
9
1681
4761
6241
3969
961
9
100
361
784
1225
1600
2500
3481
2601
676
81
2304
5329
5329
2601
441
1
81
324
729
1089
1369
2116
3249
2809
841
49
1936
5041
6084
3600
784
16
81
400
841
1156
1521
2401
3364
2704
784
49
2025
5329
6084
3364
729
4
100
441
841
1225
1600
2500
3481
2704
729
64
2209
5625
6400
3481
576
1
121
400
900
1296
1681
2601
3481
2500
576
121
2401
5476
6241
3249
625
0
144
441
900
1296
1681
2704
3600
2601
529
196
2601
5929
6241
3025
484
0
144
484
961
1369
1936
2809
3481
2116
324
256
2601
5776
5929
2809
441
0
144
529
1024
1369
1936
2916
3600
2116
256
441
3364
6724
6084
2401
256
9
196
576
1156
1521
2209
3364
3721
1936
121
784
4096
6724
5625
2025
144
36
324
729
1225
1521
2209
3249
3249
1369
9
1225
4761
6889
4900
1369
36
81
361
841
1296
1600
2304
3364
3249
1225
0
1521
5041
6724
4624
1225
36
100
484
1024
1369
1521
2304
3481
2916
900
36
2025
5625
6561
3721
729
4
121
529
1089
1369
1444
2304
3481
2809
729
121
2601
5929
6084
3025
576
1
121
441
1024
1369
1764
2809
3600
2500
441
256
2704
5776
6241
3025
441
1
169
484
961
1369
1764
2809
3364
2116
289
324
3025
6241
5929
2500
289
9
225
576
1024
1444
1936
2916
3136
1764
169
529
3364
6241
5476
2025
169
36
324
729
1024
1225
1764
2704
2916
1444
36
900
3969
6241
4624
1444
81
64
361
841
1296
1681
2025
2704
2500
1024
0
1156
4096
5929
4096
1156
36
64
289
676
1089
1444
2116
3025
2704
961
9
1444
4225
5625
3844
961
16
121
400
729
900
1225
2025
3025
2809
1024
9
1764
4761
5929
3600
841
9
144
400
841
1225
1444
2025
2916
2401
841
16
1681
4624
5776
3481
784
4
100
400
784
1156
1444
2116
2916
2401
676
36
1681
4624
5625
3249
625
0
144
361
676
1024
1369
2209
3025
2401
625
49
1936
4761
5041
2704
576
1
100
361
729
1024
1296
2116
3025
2304
576
81
1936
4761
5329
2809
441
1
121
361
841
1156
1521
2209
3025
1936
324
169
2209
4761
4900
2304
400
0
144
441
900
1225
1444
2209
3025
2025
361
196
2304
5041
5329
2500
361
4
169
484
841
1156
1600
2304
2916
1849
256
289
2500
5041
4761
2025
256
1
81
289
784
1225
1764
2704
3136
1764
196
361
2704
5184
4761
1936
196
16
225
484
784
1089
1521
2401
2704
1444
100
484
2809
5329
4624
1681
121
36
289
576
961
1225
1681
2601
2809
1225
16
900
3364
5184
3969
1156
49
64
256
625
1089
1225
1521
2401
2500
1024
4
1024
3721
5184
3481
900
16
64
289
625
961
1089
1600
2500
2500
961
0
1089
3600
4900
3481
900
16
100
289
625
961
1225
1849
2704
2304
841
0
1225
4225
5625
3600
729
0
121
324
625
1024
1296
1764
2704
2500
900
4
1369
4096
5329
3600
961
25
64
324
784
1156
1225
1849
2704
2401
900
0
1225
3844
5184
3481
900
16
81
289
576
961
1296
1849
2601
2401
900
0
1225
3844
5184
3481
729
9
49
196
576
961
1225
1764
2500
2401
784
4
1156
3481
4624
3025
729
16
49
256
576
961
1156
1681
2601
2704
1089
0
1296
4096
5329
3600
900
16
121
289
529
841
1225
1936
2809
2704
1089
0
1444
4225
5329
3364
841
25
49
324
729
1024
1225
1849
2704
2401
841
1
1369
4096
5329
3364
784
9
100
324
676
1024
1296
1936
2809
2500
841
9
1521
4356
5329
3249
784
9
81
361
729
1024
1296
1936
3025
2500
784
16
1521
4225
5476
3481
841
9
100
361
729
1089
1444
2116
3025
2401
784
25
1681
4624
5476
3249
729
1
121
361
729
1024
1369
2116
3025
2401
625
36
1681
4489
5476
3249
676
4
121
361
784
1089
1444
2209
3249
2401
625
100
2116
5041
5476
2704
441
0
169
441
676
961
1296
2209
3136
2304
576
81
2116
5184
5476
2809
441
1
144
400
784
1024
1369
2116
3025
2209
484
144
2209
5184
5329
2500
324
4
144
400
729
1089
1521
2401
3136
2116
361
225
2500
5329
5329
2304
289
4
169
400
784
1089
1521
2401
3025
1849
256
256
2500
5329
5184
2025
225
4
144
484
841
1089
1521
2401
3025
1849
169
529
3136
5041
4096
1521
144
4
144
484
900
1225
1681
2601
2809
1444
81
625
3136
5476
4624
1600
100
25
225
484
841
1296
1849
2809
2809
1296
25
784
3481
5476
4096
1296
64
36
225
576
961
1296
1849
2601
2500
1156
9
900
3600
5184
3844
1156
36
49
256
576
961
1225
1849
2809
2809
1024
0
1296
3844
4900
3364
961
25
49
256
576
961
1296
1849
2704
2500
1089
9
1089
3969
5776
3969
1024
16
81
289
625
1024
1369
2025
2916
2500
900
1
1369
3969
5329
3600
900
16
81
324
676
900
1089
1681
2809
2704
1024
0
1225
3969
5329
3600
900
16
81
324
676
961
1156
1849
2704
2601
961
1
1225
3969
5329
3600
900
16
81
324
676
961
1089
1681
2809
2809
1156
0
1369
4225
5476
3600
900
16
81
289
625
961
1225
1936
2809
2704
961
1
1369
3969
5476
3600
961
9
81
289
625
961
1156
1764
2704
2704
1156
4
1225
3969
5329
3600
961
25
64
289
576
961
1296
1764
2809
2601
1024
0
1156
3844
5329
3600
961
25
64
256
576
961
1225
1764
2809
2704
1089
0
1296
4096
5184
3364
961
81
25
289
784
1156
1444
1936
2916
2601
900
4
1369
4096
5329
3481
900
16
64
289
676
1089
1444
2025
2809
2500
841
4
1296
3969
5476
3481
841
9
81
289
576
961
1225
1849
2809
2601
1024
0
1296
4096
5476
3721
961
25
64
324
729
1089
1369
1936
2809
2704
961
0
1369
4096
5776
3969
961
9
121
324
625
1024
1369
2025
3025
2601
900
4
1521
4225
5476
3481
841
9
81
289
576
961
1296
1849
2809
2704
1089
0
1225
4225
5776
3844
900
16
81
289
576
961
1296
1849
2704
2601
961
0
1156
3844
5329
3721
961
25
64
256
576
961
1296
1849
2809
2704
1089
0
1225
3969
5476
3844
961
16
81
289
576
961
1225
1936
3025
2809
1089
4
1444
4096
5184
3364
784
25
36
225
625
1089
1369
1936
2916
2704
1024
1
1444
4489
5776
3721
841
4
100
289
576
961
1296
2116
3136
2704
900
4
1521
4356
5625
3481
729
9
81
256
576
961
1225
1849
2916
2704
1024
1
1369
4225
5476
3600
841
9
100
324
676
961
1225
1849
2809
2601
1024
0
1444
4356
5625
3600
841
9
81
289
625
961
1296
2025
2916
2704
1089
0
1296
4225
5625
3721
961
16
81
289
625
961
1225
1849
3025
3025
1156
0
1444
4489
5776
3600
900
16
64
256
576
961
1296
1936
2916
2704
1089
0
1369
4356
5776
3600
784
9
81
256
529
961
1225
1936
2916
2704
1089
0
1296
4225
5625
3600
900
9
64
256
576
1024
1296
1936
3025
2809
1024
9
1521
4356
5625
3481
784
9
64
225
625
961
1296
1936
2916
2704
1089
0
1296
4096
5625
3600
961
16
81
289
625
1024
1369
1936
2809
2500
961
1
1296
4225
5625
3600
900
16
81
361
729
1089
1225
1849
2809
2601
961
1
1369
4225
5625
3600
784
9
81
225
576
961
1296
1764
2809
3025
1296
4
1225
4225
5776
3844
961
25
64
256
576
961
1296
2025
3025
2704
961
0
1296
4096
5476
3721
961
25
64
256
625
1024
1296
1936
2916
2704
961
1
1296
4096
5476
3600
900
9
64
225
576
961
1225
1936
2916
2809
1156
4
1225
4096
5625
3600
961
36
36
225
625
1024
1369
2025
2916
2809
1024
1
1444
4489
5625
3481
841
9
49
256
576
961
1369
2116
3025
2704
1024
0
1444
4356
5776
3600
841
9
81
256
576
1024
1369
2116
3025
2809
1024
1
1444
4356
5625
3600
900
16
64
289
625
1024
1369
2116
3136
2704
961
4
1521
4489
5776
3600
841
16
81
361
729
1024
1296
2025
3025
2704
900
9
1600
4624
5625
3481
729
1
81
289
625
961
1225
2025
3136
2809
900
16
1600
4489
5625
3481
784
9
81
324
729
1089
1296
1936
3025
2809
1089
1
1521
4624
6084
3844
961
9
121
361
729
1024
1369
2209
3249
2809
900
16
1764
4624
5625
3249
729
9
81
289
676
1024
1369
2209
3136
2704
841
25
1681
4761
5625
3364
625
1
81
256
625
1024
1444
2209
3136
2809
900
9
1681
4900
5929
3481
729
4
81
324
676
1089
1444
2116
3136
2601
841
16
1681
4761
5929
3364
729
4
100
324
676
1024
1521
2304
3249
2601
729
49
1764
4761
5625
3136
625
4
81
324
729
1024
1369
2209
3249
2704
784
25
1849
4761
5476
3249
729
9
81
324
729
1156
1444
2304
3249
2601
729
49
1936
5041
5776
3136
625
4
81
324
729
1089
1444
2209
3364
2704
784
36
1936
5041
5776
3136
576
1
100
289
676
1089
1444
2401
3481
2809
784
64
2116
5329
5929
3025
576
1
100
324
676
1156
1521
2500
3481
2704
729
81
2304
5625
5929
2916
484
0
100
324
784
1156
1521
2401
3364
2601
625
121
2304
5329
5625
2809
400
0
81
324
729
1156
1600
2601
3481
2500
529
144
2401
5625
5776
2704
361
0
100
324
784
1156
1681
2704
3481
2304
361
256
2704
5776
5625
2304
324
0
121
441
841
1296
1764
2809
3481
2116
256
324
2809
5776
5476
2304
289
1
144
484
961
1296
1936
2916
3364
1936
169
529
3249
6084
5329
1936
196
9
196
484
961
1369
1936
2916
3249
1600
81
784
3600
6084
4761
1600
100
25
196
529
1024
1444
2116
3249
3364
1444
16
1089
4225
6241
4624
1296
49
49
256
676
1089
1444
2209
3249
3025
1156
0
1600
4900
6241
3844
900
16
81
324
676
1089
1600
2304
3364
2809
900
4
1600
4900
6084
3721
784
9
81
289
676
1089
1521
2304
3364
2916
961
4
1681
4761
6084
3844
900
16
81
324
729
1156
1521
2304
3364
2916
1024
9
1849
5184
6241
3844
841
9
81
324
729
1156
1600
2401
3481
3025
961
9
1764
5184
6561
3969
900
16
81
324
729
1156
1681
2601
3481
2601
784
25
1849
5041
6084
3481
676
9
64
324
784
1156
1521
2304
3481
2916
961
16
1849
5041
6084
3364
676
1
64
256
625
1089
1444
2304
3364
2809
841
25
1936
5184
6241
3481
625
4
81
324
729
1156
1521
2401
3481
2704
784
49
2025
5184
6084
3364
676
1
100
324
729
1156
1600
2601
3721
2916
676
144
2401
5329
5776
2916
484
0
81
324
676
1156
1521
2500
3481
2601
625
81
2116
5184
5776
2916
529
1
81
361
729
1089
1444
2401
3364
2500
625
100
2209
5184
5476
2601
400
0
81
289
676
1024
1521
2401
3249
2401
484
144
2209
5184
5329
2500
361
0
81
324
729
1024
1444
2401
3249
2304
484
144
2209
5184
5184
2401
400
4
81
324
784
1156
1521
2500
3249
2116
361
169
2304
5184
5041
2116
289
1
100
324
729
1156
1600
2401
3025
1849
256
289
2500
5184
4900
2025
196
9
121
361
784
1024
1600
2500
3025
1681
169
361
2601
5041
4624
1681
144
16
144
400
784
1089
1600
2601
2916
1444
64
625
3025
4900
4225
1444
100
25
169
484
900
1156
1600
2601
2601
1225
25
900
3364
4900
3481
961
25
36
196
400
784
1024
1600
2601
2704
1156
16
900
3364
4900
3481
900
16
49
196
484
841
1089
1600
2401
2500
1089
9
961
3481
4900
3481
900
25
49
196
484
841
1156
1681
2601
2601
1156
9
961
3481
4900
3364
961
25
49
196
441
841
1089
1600
2500
2704
1225
9
1089
3600
5041
3364
841
16
64
196
441
784
1024
1600
2500
2500
1089
16
784
3136
4624
3364
900
25
49
169
400
729
1024
1600
2500
2401
1024
4
900
3249
4761
3249
900
25
49
196
441
784
961
1444
2304
2500
1156
36
729
3136
4900
3481
961
25
49
196
441
784
1024
1600
2500
2500
1089
9
961
3364
4761
3364
961
36
36
169
441
841
1156
1600
2401
2500
1156
36
676
2916
4761
3481
1024
36
36
169
441
784
1089
1600
2401
2401
1024
9
900
3249
4900
3481
961
16
49
169
441
784
1089
1600
2500
2601
1156
16
841
3249
4761
3481
961
36
36
196
484
784
1024
1600
2401
2401
1089
9
841
3249
4624
3364
961
36
36
196
400
784
1024
1600
2500
2601
1156
25
784
3364
5041
3600
1024
36
49
196
484
841
1156
1764
2601
2500
1024
4
1024
3481
5041
3481
900
25
49
225
484
841
1225
1849
2704
2401
961
0
1089
3600
5041
3481
900
16
49
225
484
841
1156
1764
2704
2500
1024
4
1024
3481
5041
3364
900
25
49
225
484
784
1089
1681
2601
2500
961
4
961
3481
4900
3249
841
16
64
169
441
784
1089
1681
2601
2601
1156
9
900
3481
4900
3481
900
25
49
196
484
841
1156
1681
2500
2500
1089
9
900
3249
4900
3481
1024
16
49
196
400
729
1089
1681
2601
2500
1089
9
900
3249
4900
3600
1024
49
36
225
484
841
1225
1764
2704
2500
961
4
841
3136
4761
3481
1089
36
49
196
441
784
1089
1764
2601
2500
1089
16
900
3364
4900
3481
961
25
64
225
441
784
1089
1681
2500
2401
1024
4
961
3481
4761
3364
900
25
49
196
484
841
1089
1681
2601
2601
1156
16
900
3481
5041
3364
961
49
36
169
484
900
1156
1764
2601
2601
1089
4
1024
3600
5041
3481
900
25
49
196
484
841
1089
1681
2809
2704
1089
1
1089
3721
5041
3364
841
9
64
196
441
784
1156
1764
2704
2601
1089
1
1024
3600
5041
3481
900
25
36
196
484
841
1156
1764
2704
2500
1024
1
1089
3721
5041
3249
841
16
64
225
484
784
1089
1764
2601
2500
1024
1
1156
3721
5041
3249
784
9
64
225
484
784
1089
1681
2601
2500
1024
1
1089
3721
4900
3249
784
9
49
196
441
841
1156
1681
2500
2304
1024
1
1024
3600
4900
3249
784
16
49
196
529
841
1225
1849
2704
2500
961
0
1156
3721
4900
3249
841
16
49
196
484
841
1156
1849
2704
2500
1024
4
1089
3844
5041
3364
841
16
64
196
441
784
1156
1849
2704
2601
1024
1
1089
3721
5041
3249
841
16
49
196
441
841
1156
1764
2601
2500
1024
0
1156
3844
4900
3136
729
4
64
225
484
784
1024
1600
2601
2601
1089
4
1089
3600
5041
3249
784
16
49
169
484
900
1225
1849
2704
2500
961
0
1089
3721
5041
3249
784
25
25
196
576
900
1225
1681
2601
2500
1024
0
1156
3844
5041
3249
841
16
64
256
529
784
1024
1681
2601
2500
1089
1
1089
3721
5184
3249
729
9
64
225
484
841
1156
1681
2601
2500
961
1
1024
3481
4761
3249
784
16
49
169
441
729
1089
1681
2601
2500
1024
1
1089
3600
4900
3249
784
16
36
144
400
841
1156
1849
2704
2500
900
0
1089
3481
4900
3249
784
16
64
225
441
784
1089
1681
2601
2500
961
4
961
3364
4761
3364
900
25
49
196
484
841
1089
1681
2500
2500
1156
16
1024
3721
5041
3364
784
9
64
196
441
784
1089
1764
2601
2500
1024
1
1024
3481
4900
3481
900
25
49
169
484
841
1089
1681
2704
2601
1089
4
961
3600
4900
3481
1024
36
49
256
625
1024
1225
1600
2401
2401
961
1
1024
3600
5041
3249
729
4
64
169
400
676
1089
1936
2916
2704
1024
0
1156
3721
4900
3136
729
25
25
169
484
841
1156
1936
2809
2401
841
0
1089
3600
4900
3249
841
16
49
225
529
841
1225
1764
2704
2500
961
1
1089
3721
5041
3364
784
9
36
196
441
784
1156
1764
2601
2500
1089
4
961
3481
5041
3600
961
25
49
196
441
841
1156
1681
2500
2500
1156
16
1024
3600
5041
3364
841
16
64
225
484
841
1156
1764
2704
2601
1024
0
1156
3844
5041
3364
841
16
49
196
529
900
1156
1764
2601
2401
1024
1
1089
3721
5041
3249
784
16
64
225
484
841
1156
1764
2704
2401
900
0
1089
3481
4761
3249
841
25
49
196
529
841
1156
1849
2809
2601
900
4
1296
3969
4900
3136
676
4
64
225
529
841
1156
1681
2500
2500
1024
0
1156
3844
5184
3249
784
9
64
225
529
900
1156
1764
2500
2500
1024
1
1024
3600
5184
3364
784
9
36
121
361
784
1225
1936
2809
2704
1089
9
841
3364
5184
3844
1089
36
49
225
529
900
1156
1764
2601
2601
1156
4
961
3481
4900
3481
961
36
36
169
400
729
1089
1681
2704
2704
1225
16
900
3481
5184
3721
1089
36
49
169
441
784
1156
1849
2809
2601
1089
1
1156
3721
4900
3136
784
16
49
196
484
841
1156
1849
2916
2916
1296
9
1024
3721
5184
3600
900
36
36
169
441
784
1089
1764
2601
2401
961
1
1089
3600
5041
3249
784
9
64
196
441
784
1156
1764
2704
2601
1156
9
1024
3721
5184
3364
841
16
49
169
484
961
1296
1849
2601
2500
1024
0
1089
3721
5184
3364
841
16
64
256
484
784
1089
1764
2601
2500
961
1
1024
3481
4900
3364
961
25
49
196
484
841
1156
1764
2704
2601
1024
1
1156
3721
4900
3249
784
16
49
225
529
961
1225
1764
2704
2601
1089
0
1296
3969
5184
3249
784
16
49
225
529
900
1225
1936
2809
2500
841
1
1225
3844
5041
3364
841
9
64
196
484
841
1156
1764
2704
2704
1156
9
1024
3721
5329
3721
900
16
36
144
441
841
1296
1849
2809
2601
1024
4
1089
3721
5184
3481
961
36
36
196
529
900
1225
1936
2916
2704
1225
9
1024
3721
5329
3721
961
49
25
169
484
900
1225
1936
3025
2704
1156
4
1089
3844
5184
3481
961
64
16
169
529
961
1296
1936
2916
2704
1156
4
1156
3844
5329
3364
784
16
36
169
484
900
1225
1849
2704
2500
961
0
1225
3844
5041
3249
729
9
49
196
529
841
1156
1681
2601
2500
1024
1
1089
3721
5041
3364
841
16
49
196
529
900
1225
1764
2704
2500
900
1
1156
3600
4761
3136
784
16
36
169
484
900
1225
1936
2704
2500
961
0
1156
3600
4900
3364
900
16
64
169
400
784
1225
1849
2916
2601
961
1
1024
3481
4900
3481
841
25
36
169
484
900
1225
1849
2601
2500
1024
4
961
3481
5041
3600
1024
36
49
196
529
900
1225
1849
2704
2601
1024
1
1089
3721
5184
3481
900
16
49
196
484
900
1156
1764
2601
2601
1089
1
1089
3721
5041
3249
784
9
49
144
400
784
1225
1849
2809
2601
1089
9
961
3600
5041
3600
961
25
49
169
484
841
1089
1764
2704
2601
1089
4
1024
3600
5041
3481
1024
25
64
256
576
961
1296
1936
2809
2500
961
1
1225
3721
5184
3364
900
25
49
225
529
900
1225
1849
2809
2601
1024
0
1225
3969
5184
3249
784
16
49
225
484
784
1024
1764
2809
2704
1089
4
1089
3721
5184
3249
841
25
25
169
441
784
1225
2025
3025
2809
1024
0
1225
3844
5329
3481
961
36
25
196
484
900
1296
2116
3025
2916
1156
4
1225
4225
5625
3721
961
36
36
225
529
961
1296
2025
3025
2916
1156
4
1156
4096
5476
3844
1089
49
36
225
529
900
1296
2116
3136
2704
961
1
1369
3844
4900
3136
784
25
36
196
576
900
1225
1936
2809
2500
900
0
1296
4096
5184
3249
729
9
49
196
529
841
1225
1764
2704
2500
961
0
1156
3721
4900
3249
784
16
64
196
484
841
1225
1764
2704
2500
900
0
1156
3721
5041
3364
841
16
64
256
484
729
1024
1764
2809
2601
1024
1
1156
3844
5329
3364
841
9
64
225
529
900
1225
1936
2704
2601
1024
1
1156
3844
5184
3364
841
16
64
225
441
784
1156
1849
2809
2601
1024
0
1156
3844
5041
3364
841
16
49
196
484
841
1156
1849
2704
2500
1024
0
1156
3721
5041
3249
784
9
49
169
441
841
1156
1849
2704
2500
900
1
961
3364
4900
3364
961
49
16
169
529
900
1225
1764
2809
2704
1089
9
841
3364
5041
3844
1089
36
49
196
484
841
1225
1600
2500
2500
1089
9
900
3481
5184
3721
1024
36
36
225
484
841
1225
1849
2809
2601
1156
4
961
3481
5041
3600
1024
49
25
169
441
784
1225
1936
2916
2704
1225
16
900
3844
5625
3844
1024
49
49
196
484
841
1225
2025
3025
2809
1156
4
1156
3969
5476
3364
900
25
36
196
529
841
1225
1936
2916
2809
1089
4
1225
3969
5329
3600
841
16
49
225
484
900
1225
2025
2916
2601
961
0
1296
3969
5184
3249
784
16
49
196
529
900
1296
1936
2809
2500
841
1
1296
3844
5184
3136
676
9
36
144
441
841
1296
1936
2809
2601
1024
1
1089
3721
5184
3364
841
25
36
196
529
961
1225
1936
2704
2401
900
0
1225
3844
5184
3249
729
9
49
196
529
900
1156
1849
2704
2601
1156
9
1089
3721
5184
3600
961
64
36
169
484
784
1225
1849
3025
2809
1225
9
1024
3721
5329
3600
961
36
36
169
441
900
1296
2025
3025
2916
1225
4
1089
3969
5329
3600
961
49
25
169
441
841
1225
2025
3025
2704
1089
4
1089
3844
5184
3364
841
36
25
169
484
841
1296
2025
3025
2809
1089
4
1089
3844
5625
3721
961
49
25
144
484
900
1225
2025
3136
2916
1225
4
1156
4096
5476
3600
961
25
49
169
484
900
1296
2025
2916
2704
1024
1
1225
4225
5625
3249
676
4
64
225
529
900
1225
1849
2704
2500
961
0
1156
3721
5041
3364
841
16
49
225
576
900
1225
1849
2601
2500
1024
1
1156
3844
5184
3481
900
25
25
121
400
841
1225
1936
3025
2809
1296
9
1024
3844
5329
3600
1024
49
25
196
484
900
1225
2025
3136
2601
900
4
1369
4096
5184
3249
729
16
49
196
529
900
1369
2209
3136
2916
1089
0
1296
4096
5476
3481
900
36
25
225
576
961
1225
2025
3136
2916
1156
0
1369
4225
5476
3481
841
25
36
169
529
961
1369
2209
3136
2809
1024
0
1369
4356
5625
3481
784
16
49
169
484
961
1444
2304
3136
2601
961
0
1296
4225
5476
3481
841
25
36
196
529
961
1444
2209
3136
2916
1024
0
1369
4356
5625
3481
900
36
25
196
529
961
1444
2304
3025
2704
1024
0
1296
4096
5476
3364
841
36
36
196
529
900
1296
2209
3249
2809
961
1
1444
4225
5329
3249
841
36
25
169
529
961
1369
2116
3136
2809
1089
0
1296
4096
5476
3481
841
25
36
196
576
961
1296
2116
3025
2809
1024
0
1296
4356
5625
3364
841
25
36
196
529
900
1369
2304
3136
2704
961
1
1296
4225
5476
3364
841
49
16
169
529
961
1369
2209
3249
2809
1024
0
1369
4096
5329
3481
841
25
36
196
529
961
1369
2116
3136
2809
1089
0
1296
4356
5476
3481
841
25
36
225
625
961
1225
2116
3025
2809
1024
0
1296
4225
5625
3481
900
25
36
196
576
900
1369
2304
3249
2704
900
1
1296
4225
5625
3600
784
16
36
196
529
961
1444
2209
3136
2809
1024
0
1296
4225
5476
3364
841
49
25
196
529
900
1296
2116
3249
2916
1089
0
1369
4356
5625
3364
784
25
36
196
529
961
1369
2209
3249
2916
1024
1
1444
4356
5476
3364
784
16
49
196
484
841
1296
2209
3364
2916
1024
1
1444
4356
5476
3364
784
25
36
196
576
961
1369
2209
3481
2916
900
9
1521
4356
5476
3364
729
16
36
196
529
900
1369
2209
3249
2809
1024
1
1444
4489
5476
3249
729
16
36
225
529
961
1369
2209
3249
2916
900
4
1521
4489
5625
3600
841
25
36
225
625
1089
1444
2304
3249
2601
900
4
1444
4356
5476
3249
784
25
36
196
576
1024
1369
2209
3364
2809
1024
4
1521
4624
5625
3136
676
16
49
225
529
961
1369
2304
3249
2704
841
16
1600
4489
5476
3025
625
16
25
196
529
1024
1521
2304
3136
2500
784
16
1600
4489
5329
2916
625
16
25
196
529
1024
1521
2401
3364
2601
784
36
1764
4761
5329
2809
576
9
36
196
576
961
1369
2304
3364
2601
729
36
1764
4489
5184
2809
625
16
36
225
625
961
1444
2500
3600
2704
625
100
2025
4761
5041
2704
484
9
36
225
625
1024
1521
2401
3364
2500
676
64
1936
4761
5329
2809
484
9
36
196
576
961
1444
2401
3364
2601
676
36
1849
4624
5184
2704
576
16
25
225
576
1024
1369
2401
3364
2704
784
36
1764
4761
5329
2809
576
9
36
225
625
1089
1444
2304
3249
2500
625
100
2025
4900
5329
2500
400
1
49
196
576
1024
1600
2601
3481
2401
576
100
2116
4900
5184
2401
361
1
49
225
625
1024
1521
2500
3249
2209
484
100
2116
5041
5329
2401
361
1
64
289
676
1089
1521
2601
3249
2116
400
144
2304
5329
5329
2209
289
0
81
324
784
1156
1764
2809
3249
2025
256
289
2500
5329
4900
1936
256
1
100
361
784
1089
1681
2704
3249
1764
196
400
2809
5476
4761
1849
196
4
100
361
784
1225
1849
2916
3136
1681
121
576
3249
5625
4489
1521
100
16
144
441
841
1225
1849
2916
3025
1444
49
784
3600
5476
3969
1156
64
25
196
484
841
1225
2025
3025
2809
1225
9
1024
3721
5329
3600
1024
49
16
169
529
900
1296
2025
3136
2809
1156
1
1225
4096
5476
3481
900
49
25
169
529
961
1369
2116
3136
2809
1089
0
1296
4225
5476
3481
841
36
25
196
529
961
1369
2116
3136
2809
1156
1
1296
4489
5625
3364
841
36
16
196
529
961
1369
2116
3249
2916
1024
0
1369
4225
5476
3481
784
25
36
196
529
961
1369
2209
3136
2809
961
0
1296
4225
5625
3600
841
25
36
169
484
900
1369
2209
3249
2809
1024
0
1369
4356
5476
3364
784
16
64
196
400
729
1296
2304
3249
2916
1089
0
1369
4225
5476
3364
784
25
25
169
529
961
1369
2209
3136
2916
1024
1
1444
4356
5476
3364
729
16
36
169
529
900
1369
2209
3249
2704
961
1
1369
4225
5476
3481
841
25
36
169
529
961
1296
2116
3249
2809
1024
0
1369
4225
5625
3481
841
25
49
256
576
961
1369
2209
3249
2916
961
9
1521
4356
5329
3364
784
25
25
196
529
961
1369
2116
3136
2809
1089
0
1369
4225
5476
3481
784
25
36
196
529
961
1369
2116
3136
2809
1024
0
1444
4356
5476
3249
729
16
36
196
576
900
1296
2209
3136
2704
961
0
1296
4356
5625
3481
841
16
36
169
529
961
1296
2116
3249
2916
1024
0
1369
4225
5476
3481
784
16
36
169
484
900
1296
2116
3249
2916
1089
0
1369
4225
5329
3364
784
36
25
169
529
961
1369
2116
3136
2809
1024
0
1444
4356
5476
3249
784
25
36
196
529
961
1296
2116
3249
2704
961
1
1369
4225
5476
3364
841
25
49
225
529
900
1296
2116
3136
2704
1089
0
1369
4225
5329
3364
841
16
36
196
529
900
1225
2116
3025
2704
1024
1
1444
4356
5476
3249
729
25
36
196
529
961
1369
2209
3249
2809
961
4
1444
4356
5476
3364
784
25
36
169
529
961
1296
2116
3136
2809
1024
0
1369
4225
5476
3364
841
25
49
225
576
900
1296
2209
3249
2704
961
4
1444
4225
5184
3249
1024
121
9
289
841
1225
1521
2304
3249
2704
900
9
1681
4624
5625
3249
729
16
49
225
529
900
1296
2209
3249
2704
900
4
1444
4225
5329
3249
784
25
36
225
529
961
1296
2116
3136
2809
1024
1
1444
4356
5476
3249
784
25
36
196
529
900
1296
2209
3481
3025
961
9
1600
4624
5476
3249
729
25
25
196
484
841
1225
2116
3364
3136
1089
4
1600
4489
5476
3136
676
16
49
225
529
900
1296
2116
3136
2601
900
4
1444
4225
5184
3249
784
25
36
225
529
900
1296
2116
3136
2601
900
1
1369
4096
5329
3364
841
16
36
196
576
961
1296
2025
2916
2704
1089
0
1369
4356
5625
3364
784
25
36
225
576
961
1369
2116
3249
2809
1024
0
1444
4356
5476
3136
729
25
36
196
529
900
1296
2209
3249
2916
961
1
1369
4225
5329
3364
841
25
36
196
529
961
1296
2116
3136
2704
961
0
1369
4356
5625
3481
841
25
36
196
529
900
1296
2209
3364
2916
1024
1
1369
4225
5329
3481
841
36
25
225
529
961
1369
2209
3249
2704
1024
0
1296
4096
5476
3600
900
36
36
225
576
1024
1444
2304
3249
2809
961
4
1444
4225
5329
3481
900
36
25
225
576
1024
1444
2304
3249
2809
961
4
1521
4489
5476
3249
729
16
36
196
576
900
1296
2209
3136
2809
961
1
1369
4225
5476
3600
841
25
36
225
576
961
1296
2209
3364
2809
961
1
1369
4096
5329
3364
841
36
25
225
576
900
1296
2116
3136
2809
1089
0
1296
4225
5625
3600
961
25
100
324
676
961
1225
2116
3025
2704
900
4
1444
4356
5625
3364
784
25
36
225
576
961
1369
2209
3136
2809
961
1
1369
4096
5329
3364
784
16
36
196
529
900
1369
2116
3136
2704
1024
0
1369
4225
5476
3364
784
25
36
196
529
961
1369
2116
3249
2809
1024
0
1369
4225
5476
3364
784
25
25
144
484
961
1444
2209
3136
2809
1024
1
1369
4356
5476
3364
784
25
25
169
576
961
1369
2209
3136
2916
1024
1
1444
4356
5476
3364
729
25
25
169
529
961
1369
2209
3136
2809
1024
1
1444
4356
5329
3136
676
9
36
196
529
961
1369
2116
3136
2704
961
1
1369
4356
5476
3364
784
25
25
196
529
900
1296
2116
3136
2809
1024
1
1444
4225
5329
3249
784
25
36
196
529
961
1225
2025
3025
2809
1024
0
1369
4225
5329
3249
784
25
25
196
484
900
1296
2209
3249
2809
961
1
1444
4225
5329
3249
784
25
25
196
484
900
1296
2209
3136
2809
961
0
1369
4225
5329
3481
784
16
49
196
529
900
1369
2209
3136
2809
961
0
1296
4096
5329
3364
841
25
49
225
484
784
1156
2025
3136
2916
1156
0
1296
4225
5476
3481
841
49
25
196
576
961
1296
2209
3249
2916
1089
0
1521
4356
5476
3364
784
25
36
169
484
961
1296
2116
3025
2809
1024
0
1296
4225
5329
3364
784
36
16
169
529
900
1369
2209
3136
2809
961
0
1369
3969
5184
3249
784
25
25
196
529
841
1024
1849
3025
2916
1089
0
1296
4225
5329
3249
729
25
36
196
529
900
1369
2209
3249
2809
1024
1
1444
4356
5329
3249
784
36
36
196
529
900
1369
2209
3249
2704
900
4
1369
4096
5329
3249
784
16
36
196
484
900
1296
2116
3136
2601
900
1
1369
4225
5329
3364
784
16
49
196
529
900
1369
2209
3136
2809
961
0
1369
4225
5329
3481
841
25
49
196
529
900
1296
2116
3364
2916
961
0
1225
3969
5329
3600
1024
49
25
196
576
961
1369
2116
3136
3025
1296
0
1600
4761
5776
3364
729
16
36
196
576
900
1369
2209
3136
2809
961
0
1444
4489
5625
3364
841
16
81
289
484
729
1156
2116
3136
2916
1024
1
1296
4096
5329
3249
784
25
25
169
576
961
1444
2401
3364
2601
676
25
1521
4096
5184
3136
729
16
49
225
529
961
1369
2209
3136
2809
900
1
1521
4489
5476
3364
841
25
36
196
576
900
1296
2209
3249
2916
961
1
1444
4225
5329
3364
729
9
49
169
400
784
1225
2025
3025
2916
1089
0
1225
3969
5184
3136
900
81
9
144
529
961
1369
2116
3249
2916
1089
1
1225
4225
5929
3721
841
25
36
169
529
961
1296
2116
3249
2916
1089
0
1296
4096
5329
3481
961
49
25
196
529
961
1369
2209
3249
2809
1024
0
1296
4096
5329
3249
784
25
25
196
484
900
1296
2116
3136
2704
900
1
1296
3969
5329
3481
900
36
49
225
529
961
1296
2025
3025
2809
1024
4
1521
4489
5476
3249
784
16
36
196
576
961
1296
2116
3249
2809
961
1
1369
4225
5329
3364
841
25
36
225
576
961
1369
2116
3136
2809
1089
0
1225
4225
5625
3481
841
36
36
196
529
961
1225
1936
2916
2704
1089
1
1225
4096
5476
3364
841
36
49
196
484
784
1225
2025
3249
3025
1156
0
1444
4356
5625
3481
841
25
36
196
529
900
1369
2116
3136
2809
1089
0
1296
4225
5476
3364
841
36
25
196
529
961
1369
2116
3136
2809
1089
1
1296
4356
5625
3364
784
25
25
196
484
841
1296
2116
3249
2916
1024
1
1521
4356
5476
3364
784
25
49
256
625
1024
1369
2116
3136
2704
961
4
1521
4356
5476
3249
729
25
36
196
529
1024
1444
2401
3364
2601
729
36
1681
4356
5184
3025
676
16
36
196
576
961
1369
2209
3364
2809
900
9
1521
3969
5041
3364
900
25
64
324
625
729
900
1936
3364
3025
1024
4
1521
4489
5329
3025
676
16
49
225
576
841
1296
2209
3249
2809
1024
9
1764
5041
5776
3249
625
16
36
256
625
1024
1444
2401
3364
2704
841
16
1600
4489
5476
3025
676
16
36
196
529
900
1369
2304
3249
2704
841
16
1681
4624
5041
2704
576
25
25
196
529
900
1369
2304
3249
2601
729
16
1521
4489
5625
3249
625
1
64
225
529
900
1369
2401
3364
2601
784
36
1681
4624
5329
2916
625
9
49
196
484
900
1369
2401
3364
2704
900
9
1764
4761
5476
3136
625
9
36
196
576
900
1369
2209
3249
2809
1024
0
1600
4900
5776
3136
625
9
49
225
576
961
1369
2116
3025
2704
961
1
1444
4356
5476
3249
784
16
49
225
529
900
1225
2116
3025
2809
1089
0
1444
4356
5476
3364
784
25
36
196
576
900
1369
2304
3364
2809
961
1
1444
4356
5776
3721
900
36
49
256
625
1024
1369
2116
3025
2704
1024
1
1369
4225
5184
3136
729
25
25
196
529
900
1369
2209
3249
2809
900
9
1521
4489
5476
3249
676
9
36
144
400
841
1296
2209
3249
2809
1024
0
1444
4356
5476
3249
676
9
36
169
484
900
1296
2116
3249
2916
1089
0
1296
4225
5625
3481
841
25
36
169
529
961
1369
2116
3136
2809
1089
0
1369
4225
5476
3364
784
16
49
169
441
841
1296
2116
3249
2809
1024
0
1369
4225
5329
3249
729
9
64
121
324
729
1225
2209
3249
2809
1089
0
1296
4225
5476
3481
784
25
36
196
576
900
1296
2116
3249
2809
961
4
1369
4225
5329
3136
676
25
25
144
484
900
1369
2209
3249
2809
1024
0
1369
4225
5329
3364
841
25
36
196
576
961
1225
1936
3025
2704
1024
0
1296
4225
5329
3249
729
25
36
196
529
900
1296
2116
3136
2704
961
1
1444
4356
5476
3364
784
16
36
196
529
961
1444
2209
3025
2704
961
1
1369
4225
5329
3364
729
16
36
169
529
961
1369
2209
3025
2704
961
0
1296
3969
5184
3364
961
36
25
196
576
961
1369
2116
3025
2704
1024
0
1369
4096
5476
3481
841
25
36
196
529
900
1296
2209
3249
2704
961
0
1296
3969
5184
3364
900
36
25
196
529
900
1296
2116
3136
2809
1156
0
1444
4225
5329
3364
841
25
36
169
529
961
1296
2116
3136
2809
1024
0
1296
3969
5184
3364
784
36
25
169
441
784
1225
2116
3249
2809
1089
0
1369
4225
5329
3364
841
25
36
196
576
900
1296
2025
3025
2809
1089
0
1369
4225
5476
3364
784
25
36
196
529
961
1296
2116
3136
2809
1089
0
1444
4356
5476
3249
729
16
36
196
529
900
1369
2116
3136
2704
1024
0
1444
4356
5476
3364
784
16
49
196
529
961
1369
2209
3025
2601
961
0
1296
4096
5329
3481
784
16
49
196
484
841
1296
2116
3136
2809
1024
0
1369
4225
5476
3364
729
16
25
169
529
961
1369
2209
3136
2916
1024
1
1444
4225
5476
3364
784
25
36
169
529
961
1369
2209
3136
2809
1024
0
1369
4225
5476
3364
784
25
25
196
576
961
1369
2209
3249
2704
900
4
1521
4356
5329
3249
729
25
25
196
576
961
1369
2209
3136
2500
900
4
1369
4225
5329
3249
784
25
36
196
576
1024
1369
2116
3136
2704
961
4
1444
4356
5476
3249
784
16
36
144
441
900
1369
2209
3249
2809
1024
0
1369
4225
5476
3364
841
36
25
225
576
1024
1369
2209
3249
2704
900
1
1444
4489
5625
3249
729
16
36
196
529
961
1369
2209
3249
2809
961
1
1369
4356
5476
3364
841
25
49
225
529
841
1225
2025
3136
2916
1156
0
1444
4489
5476
3249
729
25
36
196
576
961
1369
2209
3249
2809
961
4
1444
4225
5329
3364
841
25
36
196
529
961
1369
2209
3249
2704
961
1
1369
4225
5329
3364
841
49
25
196
576
961
1369
2209
3136
2704
961
1
1369
4225
5329
3364
841
16
49
196
484
841
1296
2116
3249
2916
1089
0
1369
4624
5776
3364
784
16
49
196
529
961
1369
2209
3136
2809
1024
1
1369
4225
5329
3249
784
36
25
169
576
961
1369
2025
3025
2809
961
0
1369
4225
5476
3481
841
25
25
225
576
1024
1369
2116
3249
2809
1024
1
1521
4489
5329
3136
729
16
36
225
576
961
1369
2209
3249
2601
900
4
1444
4225
5329
3249
841
25
36
196
576
961
1296
2116
3136
2704
961
1
1369
4225
5329
3481
841
25
36
196
576
961
1369
2209
3136
2809
1024
0
1369
4356
5476
3364
784
16
36
169
484
900
1296
2116
3249
2809
1024
0
1369
4225
5476
3249
784
25
36
196
529
1024
1369
2209
3249
2809
900
9
1600
4356
5329
3136
729
16
36
196
529
900
1369
2209
3249
2809
961
1
1369
4096
5476
3364
784
25
36
196
529
900
1296
2116
3136
2704
961
1
1369
4225
5476
3481
784
16
36
196
576
900
1369
2116
3136
2809
1024
0
1369
4356
5625
3364
784
25
36
225
529
961
1296
2209
3364
2916
1024
1
1521
4356
5476
3249
784
25
36
196
529
961
1369
2209
3364
2916
1024
16
1681
4489
5329
3136
625
9
49
196
529
900
1296
2116
3136
2704
961
1
1369
4225
5329
3364
784
25
36
225
529
900
1225
2025
2916
2601
1024
0
1369
4225
5476
3249
784
16
49
196
576
961
1296
2116
3025
2704
961
0
1296
4096
5476
3481
784
25
36
196
529
961
1369
2209
3249
2809
1024
1
1444
4356
5476
3364
784
16
36
196
529
900
1369
2209
3136
2809
961
0
1369
4096
5329
3249
784
25
25
169
441
900
1296
2116
3249
2809
961
1
1369
4096
5184
3136
784
36
25
169
484
900
1296
2025
2916
2809
1156
1
1225
3969
5329
3364
841
36
25
196
441
841
1225
2025
3025
2809
1024
0
1225
4096
5329
3364
784
25
36
169
484
900
1296
2116
3136
2704
1024
0
1296
4096
5329
3364
784
25
36
169
484
900
1296
2025
3136
2809
1089
0
1369
4225
5329
3364
784
25
36
196
529
900
1296
2025
3136
2704
1024
0
1296
4225
5329
3249
784
25
36
169
529
900
1369
2209
3136
2809
961
1
1369
4096
5476
3364
841
36
25
169
529
961
1369
2116
3136
2704
1024
0
1296
3969
5329
3364
841
36
36
169
529
900
1369
2116
3136
2704
961
1
1296
4096
5041
3249
900
36
36
225
576
900
1225
2116
3025
2704
1024
0
1296
4096
5184
3249
784
25
36
169
484
900
1225
2116
3025
2809
1024
0
1444
4225
5329
3249
784
25
36
196
529
900
1296
2209
3025
2601
900
1
1296
3969
5184
3249
841
25
36
196
529
900
1296
2025
2916
2704
1089
1
1225
4096
5184
3249
784
25
25
196
484
841
1296
2025
3025
2704
961
1
1369
3969
5184
3249
729
16
49
196
484
900
1225
2116
3025
2704
1024
0
1369
4096
5184
3249
784
25
36
169
484
784
1225
2025
3136
2809
1024
0
1369
4225
5329
3249
784
25
36
196
484
841
1296
2116
3136
2809
1024
1
1369
4096
5184
3249
841
36
36
196
529
900
1296
2116
3136
2704
961
1
1296
4096
5184
3249
784
25
25
196
484
900
1225
2116
3136
2704
961
1
1296
4096
5184
3249
841
25
36
169
529
900
1296
2025
3025
2809
1024
0
1296
4096
5184
3249
784
25
25
196
484
841
1225
2025
3025
2704
1024
0
1296
3969
5329
3364
841
36
36
169
529
900
1369
2209
3136
2704
961
1
1369
4096
5184
3136
784
25
25
169
529
900
1296
2025
3025
2601
961
0
1296
3969
5041
3249
841
36
36
196
529
841
1296
2025
3025
2704
1024
0
1296
4096
5184
3249
784
25
25
169
484
841
1296
2116
3136
2704
1024
0
1369
4096
5184
3249
729
16
25
144
441
841
1296
2116
3136
2809
1024
0
1369
4096
5184
3249
784
25
25
196
484
841
1296
2116
3249
2704
961
1
1296
4096
5184
3025
676
25
16
144
484
841
1296
2116
3136
2704
961
0
1296
4096
5184
3249
784
25
25
196
484
900
1225
2116
3136
2704
961
0
1369
3969
5184
3249
841
25
25
144
441
900
1296
2116
3249
2809
1024
0
1369
4096
5184
3136
784
25
25
169
484
900
1225
2116
3136
2809
1024
0
1369
4225
5329
3249
676
9
25
121
361
841
1225
2116
3136
2809
1089
0
1296
4096
5184
3249
784
25
25
169
529
961
1296
2116
3136
2809
1024
0
1296
4096
5184
3249
784
49
16
144
529
1024
1444
2209
3136
2704
961
1
1369
4225
5184
3249
784
25
25
196
484
900
1225
2116
3136
2704
1024
0
1369
4096
5184
3249
841
36
25
169
529
961
1444
2304
3025
2601
900
1
1296
4096
5184
3136
784
25
25
196
484
900
1225
2116
3025
2704
1024
1
1369
4225
5184
3136
729
16
25
169
484
900
1296
2116
3249
2704
900
4
1444
4225
5329
3364
784
25
49
196
529
900
1296
2116
3136
2704
1024
1
1369
4225
5184
3136
729
16
36
196
529
900
1369
2209
3136
2601
841
4
1369
4096
5184
3136
784
25
25
196
484
841
1296
2116
3136
2809
1089
0
1444
4225
5329
3249
784
36
36
196
576
900
1296
2116
3025
2704
1024
0
1444
4356
5476
3249
729
25
36
196
529
961
1369
2304
3249
2809
961
1
1444
4225
5329
3364
841
25
25
196
529
961
1296
2209
3249
2809
961
1
1369
4225
5329
3249
729
25
25
144
484
900
1296
2209
3249
2809
1024
1
1369
4356
5329
3136
729
25
36
196
576
900
1296
2209
3249
2704
961
1
1369
4225
5476
3364
900
36
36
196
576
900
1296
2209
3136
2809
961
1
1369
4225
5184
3249
784
36
25
196
484
900
1296
2116
3025
2704
1024
0
1369
4225
5329
3249
784
25
36
196
484
900
1296
2116
3025
2704
961
1
1369
4225
5184
3249
729
16
36
196
529
900
1296
2116
3025
2809
1024
0
1369
4096
5329
3249
784
25
25
196
484
900
1296
2116
3136
2704
961
1
1369
4225
5329
3364
841
36
25
196
529
900
1296
2209
3136
2916
1024
0
1296
4096
5329
3249
784
25
25
196
484
900
1296
2116
3136
2704
961
1
1369
4096
5476
3481
841
25
49
196
441
841
1296
2116
3136
2809
1024
0
1369
4225
5329
3249
676
25
25
196
484
841
1296
2025
3136
2809
1024
0
1369
4225
5329
3136
729
36
16
169
529
900
1369
2209
3025
2704
961
0
1369
4096
5329
3249
784
25
25
196
484
841
1225
2025
3025
2809
961
0
1296
4096
5184
3364
784
25
36
196
529
961
1296
2025
3025
2704
1024
0
1296
4096
5329
3364
729
25
36
196
484
900
1225
2116
3136
2704
1024
0
1369
4096
5184
3249
729
16
36
144
400
784
1296
2116
3249
2809
1024
0
1369
4225
5329
3249
784
25
25
169
529
900
1369
2116
3136
2704
1024
1
1369
4356
5476
3136
729
16
36
196
576
900
1296
2209
3136
2809
900
4
1444
4225
5329
3136
729
16
36
169
484
841
1225
2116
3025
2704
961
1
1369
4225
5184
3136
729
16
25
196
484
900
1296
2116
3136
2601
900
1
1369
4096
5329
3364
784
25
36
196
529
900
1296
2025
3136
2809
1024
0
1369
4225
5329
3364
729
16
36
196
529
900
1296
2116
3136
2704
1024
0
1369
4096
5184
3249
784
25
25
169
441
841
1369
2209
3136
2704
900
4
1296
4096
5329
3249
784
16
49
225
529
841
1225
2025
3025
2704
1024
0
1296
4096
5184
3249
784
25
25
196
484
841
1296
2116
3136
2704
961
1
1225
3969
5184
3364
841
25
36
196
484
900
1225
2116
3136
2809
1024
0
1369
4225
5476
3364
784
16
36
196
529
961
1369
2209
3136
2809
961
0
1369
4225
5476
3481
841
25
25
196
529
961
1296
2025
3025
2809
1024
0
1296
4096
5329
3364
784
25
36
196
529
900
1296
2116
3136
2809
1024
0
1369
4096
5184
3249
784
25
25
196
484
900
1296
2025
3025
2809
961
0
1296
4096
5329
3364
841
36
25
169
484
900
1296
2025
3136
2809
1089
0
1369
4225
5329
3249
784
25
25
169
484
900
1296
2116
3136
2704
961
0
1296
4096
5184
3364
784
16
36
196
529
900
1296
2025
2916
2704
1024
0
1225
3969
5041
3136
729
16
36
169
441
841
1225
2116
2916
2601
900
0
1225
3969
5041
3136
784
25
36
169
441
841
1225
2025
3025
2704
961
0
1156
3844
4900
3136
784
25
36
144
441
841
1225
2025
3025
2601
1024
0
1296
3969
5184
3249
784
25
36
169
484
841
1225
2025
3025
2601
961
0
1225
3969
5041
3249
841
36
36
169
529
900
1296
1936
2809
2601
1024
0
1225
3844
5041
3249
784
25
36
196
484
841
1156
2025
3025
2704
1024
0
1296
3844
5184
3364
841
49
16
169
529
900
1296
2116
3136
2704
1024
0
1296
4096
5329
3249
784
25
25
196
484
900
1225
2025
3025
2601
961
0
1296
4096
5184
3249
784
25
36
196
484
841
1296
2025
2916
2704
1089
0
1225
4096
5184
3364
841
25
49
196
484
900
1225
2116
3025
2601
961
0
1225
3844
5184
3364
841
25
36
169
441
841
1225
1936
2916
2809
1089
1
1156
4096
5329
3364
784
25
36
169
484
900
1296
2025
3025
2809
1024
0
1296
4096
5184
3249
784
36
36
196
484
841
1296
2116
3136
2704
961
0
1296
3969
5184
3364
841
36
36
196
484
900
1296
2025
3025
2601
961
0
1225
3844
5041
3249
784
25
25
169
441
841
1225
1936
2916
2704
1024
0
1225
3844
5184
3249
841
16
49
196
484
900
1296
2025
2916
2500
1024
0
1296
4096
5184
3249
784
25
25
169
441
841
1296
2116
3136
2704
900
0
1296
3969
5184
3249
841
25
36
196
441
841
1225
2025
3025
2704
1024
0
1296
3969
5041
3136
729
16
25
144
441
841
1296
2025
3025
2601
961
0
1225
3969
5184
3249
841
36
36
196
529
841
1225
1936
3025
2809
1024
0
1225
3969
5184
3364
841
36
36
169
529
900
1296
2025
2916
2704
1089
0
1225
4096
5329
3364
784
16
49
196
484
900
1296
2116
3025
2704
1024
0
1369
4225
5476
3364
784
16
36
196
576
900
1296
2116
3025
2601
900
0
1296
4096
5329
3249
784
25
36
196
529
961
1296
2025
3025
2704
1024
0
1296
4096
5329
3481
841
25
49
225
529
900
1225
2116
3136
2809
1024
0
1369
4356
5625
3364
784
25
25
196
529
900
1296
2025
3136
2809
961
0
1369
4225
5329
3364
841
25
36
196
529
900
1296
2116
3136
2809
1024
0
1369
4225
5329
3364
784
16
36
196
529
900
1369
2116
3136
2704
1024
0
1369
4225
5329
3364
729
25
36
169
529
900
1369
2209
3136
2704
1024
0
1369
4225
5329
3249
784
25
36
196
529
900
1296
2025
3136
2601
900
1
1444
4225
5329
3364
729
16
36
196
576
900
1296
2116
3025
2704
961
0
1369
4096
5329
3364
784
25
25
196
576
961
1296
2116
3025
2704
1089
0
1296
4225
5476
3364
841
25
25
196
484
900
1296
2116
3136
2809
961
0
1369
4096
5329
3364
841
25
36
196
484
900
1296
2116
3136
2704
1089
0
1225
4096
5476
3481
900
25
36
196
529
900
1225
2025
3136
2809
1024
0
1296
4096
5329
3364
784
25
36
196
529
900
1296
2116
3136
2809
1024
0
1369
4225
5329
3249
784
25
25
169
529
900
1296
2116
3025
2809
1024
0
1369
4225
5329
3249
784
16
49
225
529
841
1225
2116
3136
2704
961
4
1444
4225
5329
3249
784
25
36
196
529
900
1296
2025
3025
2704
961
1
1296
4096
5184
3136
784
25
25
196
529
900
1296
2116
3136
2601
900
1
1444
4225
5329
3136
784
36
36
196
576
900
1225
2116
3136
2704
961
0
1225
3969
5329
3364
900
36
36
196
529
841
1296
2116
3249
2916
1024
0
1296
4225
5476
3364
841
36
36
196
484
900
1296
2209
3136
2809
961
0
1296
4096
5476
3364
841
36
36
169
529
900
1296
2116
3136
2809
1089
0
1369
4096
5184
3136
784
36
16
169
529
900
1369
2116
3136
2809
1024
0
1369
4096
5329
3364
784
25
36
196
484
900
1225
2116
3136
2809
1089
0
1369
4356
5476
3364
729
16
49
196
484
900
1296
2209
3136
2809
961
1
1369
4096
5329
3364
841
25
36
196
529
900
1296
2116
3136
2704
1024
0
1296
3969
5329
3364
841
36
36
196
529
961
1296
2025
3025
2809
961
0
1369
4096
5329
3364
841
25
36
196
529
900
1296
1936
3025
2809
1024
0
1225
4096
5329
3364
784
16
36
196
529
900
1296
2025
3025
2704
1024
0
1296
4096
5329
3364
784
16
36
169
484
961
1369
2209
3136
2704
1024
0
1369
4225
5476
3364
729
16
36
196
529
900
1296
2116
3136
2704
961
1
1225
3969
5184
3249
841
36
36
196
529
900
1296
2025
3025
2704
961
0
1369
4096
5184
3249
841
49
25
169
529
961
1369
2116
3136
2809
1089
0
1296
4225
5476
3364
841
25
25
169
484
900
1225
2025
3249
2809
1024
0
1369
4225
5329
3364
784
16
36
169
529
900
1296
2116
3136
2704
1024
0
1369
4225
5329
3249
784
25
36
169
529
900
1369
2116
3136
2809
961
1
1444
4225
5329
3364
784
16
49
225
529
900
1296
2025
3025
2704
961
0
1369
4096
5329
3364
784
16
36
169
529
961
1296
2025
3025
2809
1024
0
1225
3969
5329
3364
841
25
25
196
484
900
1225
2116
3025
2704
1024
0
1369
4225
5329
3364
729
16
36
196
529
841
1296
2116
3136
2809
1089
0
1296
4225
5476
3364
841
25
25
196
484
900
1225
2116
3136
2809
1024
0
1369
4096
5329
3249
784
25
25
196
484
900
1296
2116
3025
2809
1024
0
1369
4356
5625
3249
676
9
49
196
484
900
1225
2025
3025
2704
1089
0
1296
4096
5329
3364
841
25
36
196
576
900
1296
2116
3025
2809
1024
0
1369
4225
5329
3364
784
25
25
196
484
900
1296
2209
3136
2809
961
0
1369
4096
5329
3364
841
36
36
169
529
961
1296
2116
3136
2809
1024
0
1296
4096
5329
3364
841
25
36
169
529
900
1369
2116
3136
2704
1024
0
1369
4225
5329
3249
784
25
25
196
484
900
1225
2116
3136
2704
961
1
1296
4096
5329
3364
784
25
36
196
529
961
1296
2116
3136
2704
1024
0
1369
4225
5329
3364
784
16
36
196
576
961
1296
2025
2916
2704
961
0
1296
4096
5329
3364
841
25
49
196
484
841
1296
2025
3025
2704
1024
0
1225
4096
5329
3364
784
25
36
169
484
900
1296
2116
3136
2809
1024
0
1296
4096
5184
3249
841
36
25
196
484
900
1225
2116
3136
2809
1024
0
1369
4225
5329
3364
784
16
36
196
529
900
1369
2116
3136
2704
1024
0
1369
4225
5329
3249
784
25
36
196
484
841
1296
2116
3249
2809
1024
1
1444
4225
5329
3249
729
25
36
196
529
961
1296
2116
3136
2601
900
4
1444
4225
5329
3249
729
16
36
196
576
900
1296
2116
3025
2809
961
1
1369
4225
5329
3249
784
25
25
196
529
900
1296
2116
3136
2809
1024
0
1296
4225
5329
3249
729
16
25
169
441
841
1296
2116
3249
2809
1024
0
1369
4096
5184
3249
784
25
25
196
529
900
1296
2116
3136
2704
961
1
1369
4225
5329
3364
784
25
25
196
484
900
1296
2209
3136
2704
1024
1
1444
4225
5329
3249
729
25
36
225
529
900
1296
2025
3136
2601
961
1
1444
4225
5329
3249
784
25
36
196
529
900
1369
2209
3136
2704
961
1
1369
4096
5329
3364
784
16
36
169
484
900
1296
2025
3136
2916
1089
0
1296
4096
5329
3364
841
36
36
169
529
900
1296
2116
3136
2809
1024
0
1369
4225
5329
3364
784
16
36
196
529
900
1369
2209
3136
2704
961
0
1369
4225
5329
3364
784
25
36
169
484
900
1296
2116
3025
2809
1089
0
1296
4096
5476
3481
784
25
36
196
576
900
1225
2025
3136
2809
1089
0
1296
4096
5329
3481
900
25
36
196
529
961
1369
2116
3025
2601
1024
0
1296
4096
5329
3364
841
25
36
169
529
900
1296
2116
3136
2809
1024
0
1369
4096
5329
3364
841
16
36
196
529
900
1296
2116
3025
2704
961
0
1296
3969
5329
3364
841
25
25
196
484
900
1225
2025
3025
2601
1024
0
1296
4225
5329
3249
784
16
49
196
529
900
1296
2025
3025
2704
1024
0
1225
4096
5329
3364
784
25
36
196
529
900
1296
2116
3136
2704
1024
1
1296
4096
5184
3249
784
36
25
196
529
900
1225
2116
3025
2704
1024
0
1369
4225
5329
3249
729
25
25
196
484
841
1296
2116
3136
2704
961
0
1296
4225
5329
3249
729
16
36
196
529
900
1296
2209
3025
2704
900
4
1369
4096
5329
3136
729
16
49
196
529
841
1225
2025
3136
2704
961
1
1296
3969
5184
3364
784
25
36
196
529
900
1296
2025
3025
2809
1089
0
1296
4096
5329
3364
841
25
36
169
529
841
1296
2116
3136
2704
1024
0
1369
4096
5329
3364
784
16
36
169
484
900
1296
2116
3136
2809
1024
0
1369
4225
5476
3249
784
25
36
225
529
900
1225
2025
3136
2704
961
0
1296
4096
5184
3364
784
25
36
169
484
900
1296
2025
3025
2809
1089
1
1225
4096
5476
3481
900
25
36
196
529
900
1296
2025
3136
2704
1089
0
1296
4096
5476
3481
900
25
36
196
529
961
1296
2116
3136
2809
1089
0
1296
4225
5476
3364
841
36
25
169
484
900
1296
2116
3136
2704
1024
1
1296
4096
5184
3249
784
25
25
196
484
900
1225
2116
3136
2809
1024
0
1369
4096
5329
3249
784
25
25
169
484
900
1296
2116
3025
2704
1024
1
1369
4356
5476
3136
676
16
36
196
529
900
1369
2209
3136
2809
961
1
1444
4356
5329
3364
729
16
49
196
529
900
1225
2025
3025
2601
961
0
1296
4096
5329
3364
841
25
49
196
529
900
1296
2025
3025
2809
1024
0
1296
4096
5329
3364
841
25
36
196
484
841
1296
2116
3136
2809
1024
0
1369
4096
5329
3364
841
25
36
196
529
900
1296
2209
3249
2916
1024
0
1369
4225
5476
3364
841
36
36
169
529
900
1296
2025
3136
2704
1024
0
1296
4096
5184
3249
729
16
16
121
441
961
1444
2209
3136
2809
961
1
1444
4225
5329
3249
729
16
36
169
529
900
1369
2116
3136
2704
961
1
1369
4225
5329
3249
729
16
36
169
529
961
1369
2209
3136
2809
961
0
1296
4225
5476
3364
784
25
25
169
484
900
1296
2025
3025
2809
1089
0
1369
4225
5476
3249
784
25
36
196
529
900
1225
2025
3136
2916
1024
0
1296
4225
5329
3249
784
25
36
196
529
900
1225
2116
3025
2704
961
1
1369
4096
5329
3249
841
25
36
196
576
961
1296
2025
3025
2704
961
0
1369
4096
5329
3364
784
25
36
169
529
900
1296
2025
3025
2809
1024
0
1225
4096
5184
3136
784
36
25
196
484
900
1296
2116
3025
2704
961
0
1296
3969
5476
3481
900
25
36
196
529
961
1296
2025
3025
2809
1024
0
1296
4096
5329
3364
841
25
36
169
484
900
1296
2025
3025
2809
1024
0
1225
4096
5184
3249
784
25
25
196
484
841
1225
2025
3025
2704
1089
0
1296
3969
5329
3249
784
25
25
169
484
841
1296
2025
3025
2704
1024
0
1296
4096
5184
3249
784
25
25
196
484
841
1296
2116
3249
2704
961
1
1296
4096
5184
3364
784
16
36
196
529
900
1369
2116
3025
2704
1024
0
1369
4225
5329
3364
729
16
36
196
529
841
1296
2116
3136
2809
1024
0
1369
4225
5329
3249
729
16
25
144
484
900
1296
2116
3136
2809
1024
0
1369
4225
5329
3249
784
25
36
196
484
841
1296
2116
3249
2809
1024
1
1444
4225
5329
3249
729
25
36
196
529
900
1296
2209
3136
2704
961
1
1444
4225
5329
3249
729
16
36
196
529
900
1296
2116
3249
2704
1024
1
1444
4356
5476
3136
676
9
36
196
529
900
1225
2116
3025
2704
961
1
1369
4096
5329
3364
729
16
36
196
529
900
1225
2025
3136
2704
1024
1
1296
4096
5329
3249
784
36
36
196
529
900
1369
2209
3136
2704
961
0
1369
4096
5184
3249
784
25
36
169
484
900
1225
2116
3025
2704
1024
0
1369
4225
5329
3249
729
25
25
196
484
900
1296
2116
3025
2704
961
0
1369
3969
5184
3249
841
25
36
196
484
841
1296
2025
3136
2704
1024
0
1369
4096
5184
3249
784
36
25
196
576
961
1296
2025
3025
2704
961
1
1369
3969
5184
3249
784
25
25
196
484
900
1225
2025
3025
2704
1089
0
1296
4096
5329
3364
841
25
36
196
529
900
1296
2025
3025
2809
1024
0
1296
3969
5184
3249
784
25
25
169
484
841
1296
2025
3025
2704
1024
0
1225
4096
5184
3249
784
25
25
196
484
841
1296
2025
3136
2704
1024
0
1369
4096
5184
3249
784
25
25
196
484
900
1225
2116
3136
2704
961
0
1296
4096
5329
3364
784
25
36
169
529
900
1296
2025
3025
2809
1024
0
1225
4096
5184
3249
841
25
25
196
484
900
1225
2025
3025
2601
961
0
1225
3969
5184
3364
841
25
36
169
529
900
1225
2025
3025
2809
1024
0
1225
4096
5184
3249
841
25
36
196
484
841
1225
2116
3136
2704
1024
0
1296
4096
5184
3249
841
36
25
196
484
841
1296
2025
3025
2704
961
0
1225
3844
5041
3364
900
25
36
196
529
900
1225
1936
2916
2704
1089
1
1225
3969
5184
3249
841
36
36
196
484
900
1225
2025
3025
2704
1024
0
1296
4096
5184
3249
784
25
25
169
484
841
1296
2025
3025
2704
1024
0
1296
3969
5184
3249
784
25
25
169
484
900
1225
2116
3025
2704
1024
0
1369
4096
5184
3249
784
25
25
169
484
900
1296
2025
3025
2601
961
0
1296
3969
5184
3249
841
25
36
196
529
900
1369
2116
3025
2500
961
0
1225
3969
5184
3249
784
16
36
169
441
841
1225
2025
2916
2704
961
1
1156
3969
5184
3364
841
36
36
169
484
900
1225
2025
3025
2809
1089
1
1156
3969
5184
3364
841
36
25
169
484
900
1296
2025
3025
2704
1024
0
1225
3969
5184
3364
841
16
36
169
484
900
1296
2116
3136
2601
900
0
1156
3844
5041
3364
841
25
25
169
484
841
1296
1936
2916
2916
1089
0
1225
3844
5184
3481
841
36
25
169
441
841
1296
2025
3025
2809
1089
0
1225
3969
5329
3364
841
36
25
196
484
841
1225
1936
3025
2809
1089
1
1296
3969
5329
3364
841
36
36
169
484
841
1296
2025
3025
2809
1089
0
1225
3969
5041
3249
841
36
25
169
484
900
1296
2025
2916
2601
1024
1
1225
3969
5041
3136
729
25
25
144
484
900
1296
2025
3025
2704
1024
0
1369
4096
5184
3249
784
25
25
196
484
900
1225
2116
3136
2704
961
4
1296
3969
5184
3249
784
25
25
196
484
900
1225
2116
3136
2704
961
0
1369
4096
5184
3364
841
25
49
196
529
841
1296
2025
3025
2704
961
0
1156
3969
5329
3481
841
25
36
196
529
900
1296
2025
3025
2809
1089
1
1225
4096
5476
3364
841
36
36
196
484
900
1225
2025
3025
2601
1024
0
1225
3844
5184
3481
900
49
36
196
529
841
1296
2116
3136
2704
1024
0
1296
4096
5184
3249
729
25
36
196
484
784
1089
2025
3025
2704
1024
0
1296
4096
5184
3136
729
16
36
169
484
900
1296
2025
3025
2601
961
1
1296
3969
5184
3364
900
25
36
196
529
961
1369
2116
3025
2601
961
0
1225
3969
5184
3364
841
25
36
196
484
841
1296
2025
3136
2704
961
1
1225
3969
5184
3249
841
25
25
196
484
841
1296
2025
3025
2704
961
0
1225
3969
5184
3364
841
25
36
169
484
900
1296
2025
3136
2809
961
0
1225
3844
5329
3364
900
36
36
169
484
841
1225
2116
3136
2809
1024
0
1156
3721
5041
3481
961
49
36
196
529
900
1296
2025
3025
2704
1024
0
1296
4096
5329
3249
784
25
36
196
484
900
1225
2025
3025
2704
1024
0
1369
4096
5329
3249
784
25
25
196
529
900
1225
2025
3136
2704
961
1
1369
4225
5329
3136
729
16
36
196
529
841
1225
2116
3249
2809
1024
0
1369
4096
5184
3249
784
25
25
196
484
900
1225
2116
3025
2704
961
0
1369
4096
5184
3249
784
25
25
196
529
900
1225
2025
3025
2704
1024
0
1369
4096
5184
3136
729
25
25
169
484
841
1225
2116
3136
2809
1024
0
1296
3969
5184
3364
961
49
25
196
625
961
1296
2116
3025
2704
1024
0
1369
4225
5329
3249
729
16
36
169
484
841
1156
2116
3249
2809
1024
1
1369
4225
5184
3136
729
16
36
169
484
900
1296
2116
3136
2704
900
1
1369
4225
5184
3249
784
25
16
169
484
900
1369
2116
3136
2704
961
1
1369
4096
5184
3136
676
9
36
196
441
841
1296
2025
3025
2601
1024
0
1296
4096
5184
3249
841
25
36
196
529
900
1296
2116
3136
2704
961
0
1296
3969
5184
3136
729
36
9
144
484
961
1296
2025
2916
2809
1089
1
1156
3969
5184
3481
841
36
25
169
484
841
1225
1936
2916
2809
1089
1
1156
3969
5329
3600
900
49
25
169
529
961
1296
2025
3025
2809
1089
0
1225
3969
5329
3249
784
25
25
169
484
841
1225
2116
3025
2704
1024
0
1296
4096
5329
3249
784
36
16
169
529
900
1369
2025
3025
2601
1024
0
1296
4096
5184
3249
784
25
25
196
484
900
1225
2116
3136
2704
961
1
1296
4225
5329
3136
676
16
25
144
441
841
1296
2116
3249
2809
1024
0
1369
4225
5329
3249
784
25
36
196
484
841
1296
2116
3136
2704
961
1
1296
4096
5329
3249
784
25
36
169
529
900
1296
2116
3136
2704
1024
0
1369
4096
5041
3136
784
36
16
144
484
900
1296
2025
3025
2809
1024
0
1296
3969
4900
3136
784
36
25
196
484
841
1225
2025
3136
2809
1024
1
1296
4096
5184
3249
784
25
25
196
484
900
1296
2116
3136
2809
961
1
1369
4096
5184
3136
729
25
16
144
529
900
1369
2116
3136
2704
1024
0
1369
4225
5329
3249
784
25
25
169
529
961
1369
2209
3136
2704
961
1
1369
3969
5184
3364
841
36
36
196
529
900
1296
2116
3136
2704
961
1
1296
4096
5184
3249
784
25
36
196
484
900
1225
2209
3136
2601
900
1
1296
3969
5041
3249
784
25
25
196
484
900
1225
2025
3025
2704
1024
1
1369
4096
5184
3136
729
16
36
169
484
900
1225
2116
2916
2704
1024
0
1296
4096
5184
3249
784
25
25
196
484
841
1296
2116
3025
2601
900
1
1296
3844
5041
3136
784
25
25
196
484
900
1225
2025
3025
2704
1024
0
1296
4096
5184
3249
784
25
25
196
484
841
1296
2116
3025
2704
1024
0
1369
4096
5329
3364
784
25
25
169
529
900
1296
2116
3136
2809
1024
0
1369
4225
5184
3249
784
25
25
196
484
900
1296
2116
3025
2809
961
1
1444
4225
5184
3136
729
25
36
196
529
841
1089
1936
3025
2704
1024
0
1296
4225
5329
3136
729
16
49
196
484
841
1296
2116
3136
2704
1024
0
1369
4225
5184
3136
729
25
25
169
484
900
1296
2116
3136
2704
900
1
1444
4225
5329
3249
729
16
49
225
529
784
1156
1936
3025
2809
1089
0
1296
4096
5184
3136
729
25
16
144
484
961
1369
2209
3136
2809
961
1
1369
4096
5184
3249
784
25
25
169
441
841
1296
2025
3136
2704
1024
0
1296
4225
5329
3249
784
16
36
196
529
900
1296
2116
3136
2704
961
0
1296
3969
5041
3136
784
25
25
144
441
841
1296
2025
3025
2704
961
0
1225
3969
5184
3249
841
36
25
144
484
900
1296
2025
3025
2809
1089
4
1156
3844
5329
3364
841
36
25
169
484
900
1296
1936
2809
2601
1089
1
1156
3969
5184
3364
841
25
25
169
529
900
1296
2025
3025
2601
1024
0
1296
3969
5184
3249
841
36
25
196
484
841
1225
2025
3025
2809
1024
0
1225
3969
5041
3136
784
36
25
169
484
900
1225
2025
3025
2601
961
0
1225
4096
5329
3364
729
16
49
196
484
900
1296
2116
2916
2601
900
0
1296
3969
5184
3249
784
25
25
196
484
841
1225
1936
2916
2704
1089
0
1225
3969
5184
3364
841
16
36
169
484
900
1296
2025
3136
2809
1024
0
1369
4096
5184
3249
784
25
25
196
484
900
1225
2116
3025
2704
1024
0
1296
4096
5184
3136
784
25
25
169
484
900
1225
2116
3136
2704
961
1
1296
3969
5184
3136
729
16
36
169
441
841
1225
2025
3136
2704
1024
0
1369
4225
5329
3249
729
16
36
196
441
784
1225
2025
3136
2809
961
0
1296
3969
5184
3249
784
25
25
196
484
841
1296
2116
3136
2704
961
0
1296
3969
5184
3249
841
25
25
169
484
841
1225
2025
3136
2809
1089
1
1225
4096
5329
3364
729
16
49
196
484
784
1156
1936
3025
2809
1089
1
1225
4096
5184
3249
784
25
25
169
441
841
1296
2025
3025
2704
1089
0
1296
4096
5329
3364
841
25
36
196
484
841
1296
2116
3136
2704
841
4
1296
3844
5041
3136
784
25
25
196
484
841
1296
2025
3025
2601
961
0
1225
3969
5041
3249
784
25
25
196
484
841
1225
1936
2916
2704
1089
0
1225
3969
5041
3249
841
25
25
169
484
900
1296
1936
2916
2704
1089
0
1225
3969
5184
3249
784
25
36
169
484
841
1156
2025
2916
2704
1024
0
1225
3969
5184
3136
784
36
16
144
484
900
1296
2116
3136
2809
1024
0
1369
4225
5329
3249
784
25
25
196
484
900
1225
2116
3025
2601
900
0
1296
3969
5184
3249
784
25
36
196
576
900
1296
2025
3025
2601
961
0
1225
4096
5184
3249
784
16
36
169
484
841
1156
1936
3025
2809
1089
0
1225
4096
5329
3364
784
25
25
144
484
841
1225
2025
3025
2704
1024
0
1225
3969
5184
3249
784
25
25
169
484
900
1225
2116
3136
2809
1089
0
1296
4225
5329
3249
729
25
25
169
484
900
1225
2116
3025
2704
1024
0
1369
4225
5329
3249
784
25
36
196
529
900
1225
2116
3136
2704
900
4
1444
4096
5041
3025
676
25
36
196
484
841
1296
2025
3136
2704
961
1
1296
4096
5184
3249
841
16
36
196
529
900
1296
2025
3136
2704
1024
0
1369
4096
5329
3249
784
25
25
196
484
900
1225
2116
3136
2704
1024
0
1369
4096
5329
3136
729
25
16
144
441
900
1296
2116
3136
2809
1024
0
1369
4096
5329
3249
784
25
25
196
484
900
1225
2116
3136
2704
1024
0
1369
4096
5184
3136
729
25
25
169
484
900
1296
2116
3136
2601
900
1
1369
4225
5329
3249
784
25
36
196
484
841
1296
2025
3025
2704
1024
0
1296
4225
5329
3136
676
16
36
196
484
900
1225
2116
2916
2601
961
1
1296
4096
5184
3249
784
25
36
196
484
900
1225
2116
3025
2704
1024
0
1369
4225
5184
3136
729
25
25
169
484
900
1225
2116
3136
2704
961
0
1296
4096
5184
3136
729
16
36
169
484
841
1225
2116
3025
2809
1024
0
1369
4096
5184
3136
729
16
36
169
484
900
1296
2116
3136
2704
900
1
1369
4096
5184
3249
784
25
25
196
484
900
1225
2116
3025
2601
961
0
1225
3969
5184
3249
784
25
25
196
484
900
1225
2116
3136
2704
1024
0
1296
4096
5329
3249
784
16
36
169
529
961
1369
2116
3136
2809
1024
1
1600
4489
5329
3136
676
16
36
169
484
841
1225
2116
3136
2704
1024
0
1369
4096
5184
3136
729
16
36
169
484
841
1225
2116
3136
2809
961
1
1369
4225
5329
3249
729
16
36
169
484
841
1225
2025
3025
2601
961
0
1225
4096
5184
3249
784
16
36
169
484
841
1225
2116
3136
2704
961
0
1296
4096
5184
3249
784
25
36
169
484
900
1225
2025
3025
2704
1024
0
1225
3969
5329
3249
784
25
25
169
484
841
1225
2025
3025
2704
961
0
1156
3721
5184
3364
841
25
36
169
484
900
1296
1849
2601
2401
1024
1
1089
3721
5041
3249
784
25
36
169
441
841
1225
2025
3025
2704
1024
0
1296
3969
5041
3136
729
16
36
144
441
841
1225
2116
3025
2704
1024
0
1296
3969
5329
3136
729
16
36
169
484
900
1225
2025
2916
2601
900
1
1296
3969
5184
3249
729
16
36
196
484
900
1225
2025
3025
2601
961
0
1296
3969
5184
3136
729
16
49
169
484
841
1225
2025
3025
2601
961
0
1225
3969
5184
3249
784
16
49
169
484
841
1156
1936
2916
2704
1024
0
1225
3969
5184
3249
784
16
49
169
484
841
1225
2025
3025
2704
1024
0
1296
4096
5184
3136
676
16
36
169
441
784
1225
1936
3025
2704
961
1
1369
4225
5184
3136
676
4
49
169
441
841
1296
2025
3025
2601
900
1
1296
3969
5184
3364
784
4
81
225
484
841
1225
2025
3025
2704
1089
0
1296
4225
5625
3600
841
4
121
256
529
784
1156
1849
3025
2704
961
1
1296
4096
5476
3364
784
1
81
225
484
841
1156
1849
2916
2809
1024
0
1296
4096
5476
3481
841
1
100
256
484
784
1156
1849
2916
2704
1089
1
1225
4356
5625
3721
841
1
121
289
400
676
1024
1936
3025
2809
1089
0
1296
4225
5625
3481
784
4
81
225
484
841
1225
1936
2916
2809
1089
0
1296
4225
5625
3721
784
4
121
256
529
900
1225
1936
2916
2704
1024
0
1369
4225
5625
3600
841
4
100
256
529
841
1156
2025
3025
2704
1089
1
1225
4489
6084
3844
784
0
121
289
576
841
1225
2025
3025
2601
900
1
1444
4489
5625
3481
729
0
100
256
529
900
1296
2025
3025
2601
961
1
1369
4356
5625
3600
729
4
100
256
529
900
1225
1936
3025
2809
1024
1
1369
4356
5776
3600
784
4
100
256
529
900
1225
2025
3025
2704
1024
0
1444
4356
5625
3364
784
4
64
196
484
841
1296
2025
3136
2809
1089
0
1444
4356
5776
3600
784
4
81
225
529
900
1296
2025
3025
2704
1024
0
1369
4225
5625
3600
784
9
81
225
529
841
1225
1936
3025
2916
1156
1
1225
4225
5625
3721
841
9
64
196
484
841
1156
1849
2916
2809
1156
4
1156
4096
5625
3721
900
16
81
256
484
784
1156
1849
3025
2916
1156
1
1225
4096
5625
3844
961
16
64
256
529
841
1225
1936
3025
2809
1089
1
1225
4096
5476
3600
841
4
64
196
400
676
1024
1936
3025
3025
1225
9
1156
3969
5625
3721
900
9
81
256
529
841
1156
1849
2809
2809
1089
4
1156
4096
5625
3721
900
9
64
196
484
841
1225
1936
3025
2809
1225
4
1089
3969
5476
3721
1024
36
64
225
576
841
1296
2025
3136
2809
1089
0
1296
4225
5625
3600
841
9
81
256
529
841
1156
1849
2809
2809
1156
1
1156
4096
5625
3721
900
9
64
196
441
841
1225
2025
3025
2809
1225
4
1156
4096
5625
3721
961
16
81
225
484
841
1225
1849
2809
2809
1156
1
1156
3969
5329
3481
961
25
36
196
441
841
1225
1849
2916
2704
1156
9
1089
3844
5476
3600
900
25
25
169
529
900
1296
2025
3025
2704
1024
1
1156
3969
5184
3481
841
25
36
169
484
900
1225
2025
3025
2704
1024
0
1296
4096
5476
3364
841
25
49
196
484
841
1225
2116
3136
2601
900
0
1225
3969
5041
3249
784
25
36
196
484
900
1296
2025
2916
2601
1024
0
1225
3844
5184
3364
841
25
25
169
441
841
1296
2116
3025
2601
1024
0
1225
3969
5329
3249
784
25
36
169
441
729
1156
2025
3136
2809
1089
1
1225
3969
5184
3249
784
25
25
196
484
841
1296
2116
3136
2704
1024
0
1225
4096
5329
3364
784
25
25
169
441
784
1296
2116
3136
2704
961
0
1225
3969
5184
3249
784
25
25
196
484
841
1296
2025
3025
2601
961
0
1225
3969
5184
3249
784
25
36
196
441
784
1225
2025
3025
2809
1024
0
1225
3969
5184
3249
784
25
25
169
441
841
1296
2116
3136
2704
1024
0
1369
4096
5329
3249
784
25
25
196
484
900
1296
2116
3136
2704
900
4
1369
4096
5184
3364
841
25
36
196
529
841
1296
2116
3136
2704
961
0
1225
3969
5184
3249
784
25
25
196
484
961
1296
1936
2916
2601
961
0
1225
3969
5184
3249
841
25
25
196
484
841
1296
2025
3025
2704
1024
0
1225
3969
5329
3249
784
25
36
169
484
841
1225
2116
3025
2809
1089
0
1225
4096
5329
3364
784
36
25
144
441
841
1296
2116
3136
2704
1024
0
1225
3969
5184
3364
784
16
36
196
484
841
1225
2025
3025
2704
961
1
1296
3969
5041
3136
729
16
36
169
484
841
1225
2116
3025
2704
1024
0
1296
4096
5184
3136
676
16
25
144
484
841
1156
1936
3025
2704
1024
0
1296
4096
5184
3136
676
9
36
169
441
841
1156
2025
3025
2601
961
0
1296
3969
5184
3249
729
16
49
169
484
841
1225
2025
3025
2601
1024
0
1296
4225
5329
3249
676
16
36
196
529
900
1296
2116
3025
2601
900
1
1296
4096
5184
3136
729
9
49
169
441
784
1156
2025
3025
2809
1024
0
1225
4096
5184
3481
784
16
64
225
484
841
1225
2116
3136
2704
961
0
1296
4096
5184
3249
729
9
49
144
400
729
1156
2025
3025
2809
1156
4
1156
3969
5476
3721
841
4
81
225
484
841
1156
1849
2704
2601
1089
4
1089
3844
5329
3364
841
16
49
196
484
841
1156
1936
2916
2704
1024
0
1225
4096
5329
3364
729
16
49
169
441
784
1225
2025
3025
2809
961
0
1296
4096
5476
3481
784
4
100
225
484
784
1156
1936
3025
2809
1024
0
1296
4356
5476
3481
729
4
100
256
529
900
1225
2025
3025
2601
900
1
1369
4356
5776
3600
729
0
121
256
441
784
1156
2116
3025
2704
1024
1
1444
4489
5476
3249
676
4
81
256
529
841
1156
1849
2809
2704
1089
9
1089
4096
5625
3600
841
16
49
196
484
841
1225
1936
2916
2704
1089
1
1156
3844
5184
3249
784
25
36
169
484
784
1156
2025
3025
2601
961
0
1156
3721
5329
3481
841
16
49
196
484
841
1156
2025
3025
2601
1024
0
1225
3969
5184
3249
784
25
36
196
441
841
1225
2025
3025
2601
961
1
1296
3969
5184
3249
729
9
49
196
484
841
1156
1936
2916
2704
1024
0
1156
3844
5184
3249
729
16
36
169
484
900
1225
2025
2916
2704
1089
0
1369
4356
5476
3249
729
4
49
196
484
841
1156
1936
2916
2704
1024
0
1156
3969
5184
3249
784
16
49
196
484
841
1156
1936
3025
2704
1024
0
1225
3721
5041
3364
961
25
49
169
400
729
1156
2025
3136
2809
1024
0
1225
4096
5184
3249
676
4
49
169
441
784
1156
1936
2916
2704
1089
1
1225
3969
5184
3249
729
9
49
144
441
784
1225
1936
2916
2704
1089
1
1225
4225
5329
3249
676
9
64
196
484
784
1024
1764
2809
2704
1156
4
1089
3844
5041
3249
784
9
49
169
400
729
1156
1764
2809
2704
1089
4
1089
3721
5041
3364
784
9
64
196
400
784
1089
1764
2704
2601
1024
4
1024
3600
5329
3364
729
9
49
144
361
729
1089
1764
2809
2704
1089
1
1089
3600
5041
3481
841
9
49
144
400
729
1089
1764
2704
2704
1156
16
1024
3600
5041
3364
841
16
49
169
441
784
1089
1849
2704
2500
1024
1
1089
3721
5041
3249
784
16
25
144
441
841
1225
1849
2809
2601
1024
1
1156
3844
5041
3136
729
9
36
169
400
841
1156
1764
2704
2601
1089
4
1089
3844
5184
3249
729
16
49
169
441
729
1089
1849
2809
2704
1089
1
1225
3969
4900
3025
729
16
36
144
400
784
1225
1936
2916
2601
961
1
1225
3844
4900
3249
784
16
49
169
441
784
1225
2025
2916
2601
1024
0
1156
3844
5041
3249
841
16
49
169
441
784
1225
1936
2916
2704
1024
1
1156
3969
5184
3136
676
9
36
196
441
729
1024
1764
2809
2601
1089
1
1089
3844
5041
3136
729
16
36
169
441
784
1156
1936
2916
2601
1024
0
1225
3844
5184
3364
784
25
36
169
441
841
1225
1936
2916
2401
900
0
1225
3721
5041
3136
676
4
49
144
361
729
1225
1936
2916
2704
1089
1
1156
3969
5184
3249
729
9
49
169
441
784
1089
1849
2809
2601
1089
4
1089
3844
5184
3364
784
9
49
169
441
784
1156
1681
2704
2601
1156
16
961
3600
5184
3481
841
25
36
144
400
784
1225
1849
2916
2601
1156
9
1024
3721
5184
3600
900
16
49
169
400
784
1156
1849
2809
2809
1156
1
1156
3844
5184
3364
841
16
49
169
441
784
1156
1849
2809
2704
1089
1
1089
3721
5041
3364
784
9
49
121
361
784
1225
1936
2809
2704
1156
4
1024
3600
5041
3481
841
16
49
169
441
784
1089
1849
2809
2601
1024
1
1156
3844
5041
3249
784
9
49
144
361
729
1156
1936
2916
2809
1089
4
1089
3721
5184
3364
841
9
49
169
400
729
1156
1849
2809
2704
1156
9
1024
3600
5041
3364
841
16
36
144
361
729
1089
1849
2809
2601
1024
0
1156
3844
5184
3136
729
9
64
196
441
729
1089
1764
2809
2704
1089
4
1024
3721
5041
3249
784
16
49
169
441
784
1156
1936
2809
2601
1024
0
1225
3844
5184
3249
729
9
49
144
400
784
1156
1849
2809
2704
1089
1
1156
3721
5041
3249
784
9
49
169
441
784
1089
1849
2809
2601
1024
4
1089
3844
5041
3249
784
16
49
169
441
784
1156
1849
2809
2601
1024
1
1156
3844
5041
3249
729
9
49
169
441
784
1089
1849
2704
2500
1024
1
1089
3721
5041
3249
729
4
64
169
400
676
961
1681
2601
2500
1089
9
900
3600
4900
3364
841
4
81
169
361
625
961
1600
2601
2601
1225
16
841
3364
4900
3481
900
9
81
169
324
576
961
1444
2401
2704
1296
49
729
3136
4900
3721
1024
16
81
169
361
625
961
1521
2500
2704
1296
49
729
3249
5041
3844
1024
16
64
169
361
625
961
1600
2601
2704
1296
36
784
3364
4900
3600
900
9
49
121
289
625
961
1444
2500
2601
1369
81
625
3025
4761
3600
1024
25
49
121
324
625
961
1521
2401
2500
1225
49
676
3025
4900
3721
1024
16
81
169
361
625
961
1600
2601
2704
1225
36
784
3364
5041
3721
961
9
81
169
324
576
961
1521
2500
2601
1369
81
625
2916
4900
3844
1156
25
64
144
289
576
900
1444
2401
2601
1296
64
625
2916
4900
3844
1089
16
49
169
324
576
961
1600
2500
2601
1296
49
676
3025
4900
3721
1024
16
81
169
361
625
900
1521
2500
2601
1225
36
784
3249
4761
3481
900
4
81
144
289
576
900
1521
2401
2500
1296
64
729
3136
4761
3600
1024
9
81
169
289
576
841
1444
2304
2500
1296
64
576
2916
4624
3600
1089
16
81
169
289
576
841
1444
2401
2601
1296
64
676
3025
4761
3721
961
4
81
144
256
529
900
1369
2401
2704
1444
100
529
2916
4761
3844
1089
16
81
144
289
576
900
1444
2401
2500
1225
49
625
3025
4624
3600
1024
9
64
144
256
529
900
1369
2401
2601
1369
81
576
2916
4761
3721
1024
9
81
169
324
576
841
1369
2209
2500
1296
64
529
2809
4624
3721
1089
16
81
169
324
529
841
1369
2304
2500
1296
64
625
2916
4761
3844
1089
16
64
169
324
625
900
1444
2500
2601
1225
36
729
3136
4761
3600
961
9
81
144
256
529
900
1369
2304
2601
1369
81
529
2809
4761
3844
1089
16
81
169
289
576
841
1444
2304
2601
1369
64
676
2916
4624
3721
1024
16
81
169
289
576
841
1444
2401
2500
1296
64
676
3025
4761
3600
961
4
81
169
256
441
729
1296
2304
2601
1444
100
529
2704
4624
3721
1156
16
64
144
289
576
841
1444
2304
2500
1225
36
729
3025
4624
3600
961
9
81
169
289
529
784
1369
2401
2601
1369
81
576
2704
4624
3721
1089
16
81
169
289
529
841
1444
2304
2704
1296
64
625
2916
4761
3721
1024
9
81
144
289
576
841
1369
2209
2500
1369
81
529
2704
4624
3721
1089
9
81
121
256
484
841
1369
2304
2500
1369
81
484
2704
4624
3721
1089
16
81
169
289
529
784
1369
2304
2601
1369
81
576
2809
4624
3721
1024
9
81
121
256
529
900
1444
2209
2500
1296
81
529
2704
4624
3721
1089
16
100
144
289
484
841
1444
2401
2500
1225
25
729
3025
4624
3364
841
0
121
169
256
484
841
1369
2304
2601
1296
49
625
2916
4624
3600
961
1
100
169
256
484
784
1296
2209
2500
1296
64
625
2809
4624
3481
900
1
121
144
225
441
784
1369
2209
2500
1296
64
576
2809
4489
3600
961
4
100
169
289
529
729
1225
2116
2500
1296
81
529
2704
4489
3600
1024
4
100
144
225
400
729
1296
2209
2500
1296
64
576
2809
4489
3600
961
1
121
169
225
441
784
1296
2209
2401
1225
64
576
2601
4356
3481
900
4
121
144
225
441
676
1296
2116
2401
1296
81
529
2809
4489
3600
961
0
144
169
225
441
729
1225
2116
2401
1225
64
529
2704
4489
3481
1024
4
121
169
225
441
729
1225
2116
2401
1225
64
576
2704
4489
3481
961
0
144
144
256
441
729
1225
2025
2401
1296
81
529
2704
4489
3600
961
0
144
169
196
400
676
1225
2116
2500
1369
100
484
2601
4624
3721
961
0
121
144
196
441
676
1225
2116
2401
1296
81
484
2500
4356
3600
961
1
144
169
225
400
676
1156
2025
2401
1296
100
484
2601
4489
3600
961
0
144
169
225
400
676
1156
2025
2401
1296
81
529
2704
4489
3600
961
1
144
169
196
400
729
1225
2116
2500
1296
81
484
2601
4489
3481
961
0
144
144
196
400
729
1225
2116
2500
1369
100
484
2704
4624
3721
961
0
144
169
225
400
729
1225
2116
2401
1225
49
576
2704
4489
3481
900
0
144
144
196
400
729
1225
2116
2500
1296
64
529
2704
4489
3481
900
0
169
169
196
361
625
1225
2116
2500
1369
100
529
2704
4624
3600
900
0
169
169
225
400
676
1225
2116
2304
1156
49
576
2809
4356
3481
841
1
169
169
196
361
625
1225
2116
2401
1296
49
625
2704
4356
3364
784
4
169
144
196
324
625
1225
2116
2401
1225
49
576
2704
4489
3364
841
1
144
169
196
361
625
1225
2116
2401
1296
49
576
2704
4489
3364
841
1
169
169
225
400
676
1225
2116
2401
1156
49
625
2809
4356
3481
841
1
169
196
225
400
676
1225
2116
2401
1156
49
576
2809
4489
3481
841
0
144
144
196
400
729
1296
2209
2500
1225
64
576
2809
4489
3481
900
0
169
196
225
400
625
1156
2025
2401
1296
49
576
2809
4356
3364
841
4
169
169
169
361
625
1089
2025
2304
1225
64
576
2601
4356
3364
784
4
169
144
169
324
676
1225
2209
2401
1296
36
625
2704
4225
3364
784
1
196
169
144
289
576
1156
2116
2401
1225
64
529
2500
4356
3364
784
4
196
169
169
289
576
1024
2025
2304
1225
64
529
2500
4225
3364
841
1
225
196
169
289
576
1024
2025
2304
1225
64
529
2500
4225
3364
841
1
225
196
169
289
576
1089
1936
2304
1156
49
529
2500
4096
3249
784
1
225
196
169
289
576
1089
1936
2304
1156
49
529
2601
4225
3364
784
4
225
196
169
324
576
1089
2025
2401
1225
49
529
2601
4356
3364
784
4
196
169
169
256
576
1024
2025
2304
1225
64
529
2500
4225
3364
784
4
225
196
169
289
576
1089
2025
2209
1156
49
529
2500
4096
3249
729
9
225
169
144
256
484
1024
1936
2304
1156
49
529
2500
4096
3249
784
9
225
169
144
256
529
1024
2025
2304
1156
49
529
2500
4225
3249
729
25
289
196
144
225
484
1024
1849
2116
1024
36
576
2601
4096
2916
576
36
289
196
144
256
529
1089
1936
2116
1024
16
676
2704
4096
2916
529
49
324
196
169
256
529
1024
1936
2209
961
4
784
2809
4096
2809
484
64
324
225
144
225
484
1089
1936
2025
961
25
625
2601
3969
2916
576
36
324
225
144
225
484
1024
1936
2116
961
16
576
2500
3969
3025
576
25
289
196
144
225
484
1024
1849
2209
1024
25
625
2601
4096
2916
576
36
289
169
121
225
529
1089
1936
2209
1024
25
729
2704
4096
2916
484
49
324
196
121
225
484
1089
1936
2209
961
9
729
2601
3844
2809
529
49
361
196
100
196
441
1024
1849
2116
961
25
576
2401
3969
3025
529
64
361
225
121
196
400
900
1849
2116
1024
25
625
2500
3969
3025
625
49
324
225
121
225
441
961
1849
2116
1024
25
625
2500
3969
3025
576
49
324
196
121
225
441
900
1849
2116
1024
36
576
2401
4096
3025
576
36
324
196
100
196
441
961
1849
2209
1089
36
529
2401
3969
3136
576
36
324
169
100
169
441
961
1764
2116
1024
36
529
2401
3844
2916
576
49
361
196
121
169
400
900
1764
2116
1024
36
529
2401
3844
2916
576
49
361
196
100
169
400
900
1764
2116
1089
36
529
2401
3844
2916
576
49
361
196
100
144
361
900
1764
2116
1089
49
484
2304
3969
3025
576
49
361
196
100
169
361
841
1764
2116
1089
49
484
2304
3969
3025
625
36
361
196
100
169
400
900
1764
2116
1089
49
529
2304
3969
3025
625
49
400
196
81
144
361
900
1681
2116
1156
64
441
2304
3844
3025
676
36
361
225
100
144
324
841
1681
2025
1089
64
400
2116
3721
2916
676
36
361
225
100
144
324
841
1764
2116
1089
64
484
2304
3844
3025
625
36
361
196
81
121
361
841
1764
2209
1156
81
361
2116
3844
3136
729
25
324
196
81
121
324
841
1764
2304
1225
100
324
2116
3844
3249
784
9
289
196
81
121
361
784
1681
2209
1296
144
289
2025
3844
3249
841
9
324
196
81
121
324
784
1600
2209
1369
169
256
1936
3721
3249
900
9
361
225
64
100
256
729
1600
2209
1369
169
225
1849
3721
3364
961
4
324
196
81
100
289
676
1521
2209
1521
225
196
1764
3721
3364
1024
0
289
225
81
121
289
729
1521
2209
1444
225
196
1764
3600
3481
1089
0
289
225
100
144
324
729
1600
2304
1521
225
225
1936
3969
3721
1225
1
256
256
121
169
400
841
1681
2401
1444
196
225
1936
3844
3481
1024
1
289
196
121
144
361
784
1681
2209
1369
144
256
2025
3844
3364
900
4
289
196
81
121
361
784
1681
2209
1369
169
289
1936
3721
3364
961
1
289
225
100
121
324
729
1681
2209
1369
169
225
1936
3721
3364
961
1
289
225
81
121
324
729
1600
2209
1444
196
196
1764
3721
3364
1089
0
289
225
100
121
324
676
1600
2209
1369
169
256
1936
3844
3364
961
9
324
256
81
100
289
729
1521
2304
1444
225
196
1936
3844
3481
1024
0
289
225
81
121
324
729
1600
2304
1444
225
225
1849
3721
3481
1156
1
256
225
100
144
324
784
1600
2304
1521
225
225
1936
3844
3481
1089
0
256
225
100
169
361
841
1681
2304
1521
169
256
2025
3969
3600
1089
0
256
225
121
196
400
841
1681
2304
1369
144
289
2116
3969
3481
1024
1
256
225
144
196
400
841
1764
2304
1296
100
324
2116
4096
3364
841
9
324
225
100
144
400
841
1764
2209
1296
100
361
2116
3969
3364
841
9
324
196
81
169
361
841
1681
2209
1369
144
289
2025
3844
3364
900
4
289
196
81
144
361
784
1600
2304
1444
169
256
1936
3844
3481
1024
0
225
225
144
196
400
784
1600
2304
1369
144
289
2209
4096
3721
1089
0
225
196
121
196
400
900
1764
2304
1369
144
289
2025
3969
3481
900
4
289
225
121
196
441
900
1764
2209
1225
81
324
2116
3844
3249
900
4
289
196
81
144
361
784
1681
2209
1369
169
256
1936
3844
3364
961
1
324
225
100
121
324
729
1600
2209
1369
144
256
1849
3600
3364
900
4
289
196
100
121
324
784
1600
2209
1369
169
256
1936
3844
3364
961
1
256
196
81
144
324
784
1600
2304
1521
225
196
1764
3721
3481
1225
4
196
196
144
225
441
841
1681
2304
1369
169
256
2025
3969
3600
1024
0
225
196
121
196
441
900
1764
2304
1296
121
361
2116
3969
3364
900
4
289
225
121
196
400
900
1764
2209
1369
121
324
2116
3969
3364
900
4
289
196
100
121
361
841
1764
2304
1296
121
324
2025
3844
3364
900
4
289
196
100
144
361
784
1681
2209
1369
121
324
2116
3844
3249
784
16
289
196
100
144
361
900
1764
2116
1156
81
361
2025
3721
3136
784
16
289
196
81
144
361
784
1681
2116
1296
121
289
2025
3844
3364
841
9
324
225
100
121
361
784
1681
2209
1296
144
289
2025
3844
3364
961
9
289
225
100
121
361
784
1681
2209
1369
144
289
2025
3844
3364
900
4
289
225
81
121
361
784
1600
2116
1369
144
256
1936
3721
3364
900
4
289
225
100
121
324
729
1600
2209
1369
169
225
1849
3844
3364
961
1
289
225
100
121
324
729
1600
2209
1369
144
256
1936
3721
3364
961
4
324
225
81
144
324
729
1600
2209
1444
169
225
1849
3721
3364
1024
1
289
225
100
144
324
784
1681
2304
1369
169
225
1849
3844
3364
900
4
324
196
64
121
289
729
1521
2116
1444
196
225
1936
3844
3481
1024
1
324
256
100
121
289
729
1600
2209
1369
169
256
1936
3721
3249
900
9
324
225
64
100
289
676
1600
2304
1444
196
225
1849
3721
3364
961
1
324
225
81
100
256
625
1521
2209
1521
196
196
1764
3721
3364
1024
0
289
256
100
100
289
729
1600
2209
1369
196
196
1849
3721
3481
1024
0
289
256
81
100
289
784
1600
2304
1444
169
225
1849
3600
3481
961
1
324
256
81
100
289
729
1600
2304
1444
196
196
1936
3721
3481
1024
0
289
256
100
100
289
729
1600
2304
1444
196
196
1849
3600
3364
1089
0
289
256
100
121
289
729
1600
2209
1369
169
225
1849
3844
3364
961
1
324
256
100
100
289
676
1521
2304
1444
196
225
1936
3721
3364
961
4
324
256
81
100
289
676
1521
2209
1521
225
169
1849
3721
3481
1089
0
289
225
100
144
324
729
1600
2304
1369
169
225
1849
3600
3249
1024
0
289
225
100
121
324
676
1600
2304
1444
169
225
1849
3721
3364
961
1
289
225
100
121
289
729
1521
2209
1369
169
225
1764
3600
3364
1024
1
256
196
81
121
324
729
1681
2304
1369
169
225
1849
3600
3364
900
4
324
196
64
121
289
676
1600
2209
1444
196
196
1849
3721
3364
1089
0
256
225
100
144
324
729
1681
2209
1369
169
225
1849
3721
3364
961
1
289
225
81
100
289
784
1681
2401
1444
196
225
1849
3600
3364
1089
0
256
225
81
100
289
729
1600
2304
1444
225
169
1849
3721
3481
1156
1
289
256
100
144
324
784
1681
2304
1444
169
225
1849
3721
3481
1024
0
256
196
81
144
324
784
1681
2304
1444
196
225
1849
3721
3364
1024
0
256
196
81
121
324
729
1681
2209
1444
196
225
1936
3844
3481
1024
0
256
196
81
144
324
729
1600
2304
1444
196
225
1849
3721
3364
961
1
324
196
64
100
289
729
1600
2304
1444
225
225
1849
3721
3481
1089
0
289
225
100
121
324
784
1600
2304
1444
196
196
1936
3844
3481
1024
0
289
225
81
121
324
729
1600
2304
1444
225
196
1849
3600
3364
1089
0
256
225
81
100
289
676
1521
2209
1521
225
196
1764
3721
3481
1024
0
289
225
81
121
289
676
1600
2304
1521
256
169
1764
3721
3481
1089
0
289
225
81
121
289
676
1600
2304
1521
256
169
1764
3600
3481
1225
1
289
256
100
100
289
729
1521
2209
1521
225
196
1764
3721
3364
1089
0
256
225
81
121
324
729
1600
2209
1444
196
196
1764
3721
3481
1024
0
289
225
81
100
289
729
1600
2304
1444
196
196
1764
3721
3364
1024
1
289
196
81
100
289
676
1521
2209
1444
225
196
1764
3600
3481
1024
0
324
289
100
100
289
676
1521
2116
1444
196
225
1849
3600
3136
900
1
324
196
81
81
256
676
1521
2209
1444
225
169
1681
3600
3364
1156
0
289
256
81
81
225
576
1444
2209
1600
289
144
1681
3481
3364
1225
1
289
289
100
81
225
625
1444
2209
1521
289
144
1681
3600
3364
1225
1
289
289
100
81
225
625
1521
2304
1600
289
144
1764
3600
3364
1225
1
324
289
100
64
225
576
1369
2209
1600
324
121
1600
3481
3364
1225
4
324
289
100
81
196
529
1369
2209
1521
324
100
1521
3364
3364
1296
4
324
324
100
81
225
529
1296
2116
1521
324
121
1600
3364
3364
1296
4
361
324
100
64
196
576
1369
2209
1600
361
121
1521
3364
3481
1296
9
324
324
100
64
196
576
1369
2116
1521
324
100
1521
3364
3364
1369
9
361
324
100
64
169
529
1369
2116
1600
324
81
1444
3249
3481
1444
16
324
361
121
64
169
529
1369
2116
1600
324
81
1444
3249
3600
1521
16
324
400
121
64
169
529
1369
2116
1681
361
81
1444
3364
3600
1521
16
324
361
121
64
196
529
1296
2025
1600
361
81
1444
3249
3600
1600
25
361
441
121
64
169
484
1225
2025
1600
400
49
1296
3136
3481
1600
36
324
441
144
64
169
484
1156
1936
1521
361
49
1296
3136
3364
1600
36
361
441
144
64
169
484
1225
2025
1600
400
64
1296
3136
3481
1600
36
324
441
144
64
144
484
1156
1936
1600
400
36
1296
3025
3481
1681
49
361
441
121
64
169
441
1225
2025
1681
441
36
1296
3136
3481
1681
49
361
484
144
64
144
441
1156
1936
1600
441
25
1225
3136
3600
1764
64
324
484
144
64
144
441
1156
2025
1681
441
25
1225
3136
3600
1764
49
361
484
144
49
144
441
1156
2025
1600
484
25
1225
3025
3481
1764
64
324
484
144
64
144
441
1156
2025
1681
441
36
1156
3025
3600
1849
64
324
441
144
64
144
441
1089
1936
1521
441
25
1156
3025
3364
1681
64
361
484
144
64
144
400
1024
1936
1600
484
25
1225
3136
3600
1849
81
324
484
169
81
169
441
1089
1936
1681
529
16
1156
3025
3600
1849
81
324
484
144
49
144
441
1089
1936
1764
529
16
1156
3025
3600
1849
81
324
484
144
64
144
400
1089
1849
1681
529
9
1089
2916
3600
2025
100
324
484
144
64
144
441
1156
1936
1681
529
16
1156
3025
3721
1936
100
289
484
169
81
169
441
1225
2025
1681
484
36
1225
3136
3600
1849
81
324
441
144
81
169
441
1156
2025
1681
484
25
1225
3025
3481
1764
81
324
441
144
81
169
441
1089
1936
1600
529
16
1156
3025
3600
2025
121
256
484
196
121
169
441
1225
2116
1849
529
25
1369
3600
4096
2025
121
169
324
196
169
289
625
1521
2304
1764
441
81
1521
3600
3844
1681
49
256
361
196
144
289
625
1444
2304
1764
400
100
1681
3600
3844
1600
36
256
289
121
121
289
676
1521
2304
1681
361
144
1681
3721
3721
1444
9
256
256
121
121
289
676
1444
2304
1681
361
144
1681
3721
3600
1296
9
256
225
100
121
256
676
1521
2304
1600
289
144
1764
3600
3481
1225
4
289
256
100
100
289
676
1444
2304
1600
225
169
1849
3721
3481
1156
0
324
256
121
121
289
729
1521
2209
1444
225
196
1849
3844
3481
1024
0
289
225
81
121
324
729
1600
2209
1444
225
196
1849
3721
3481
1156
0
256
225
100
121
324
729
1681
2304
1444
196
256
1936
3844
3364
1024
0
289
196
100
169
361
784
1681
2304
1444
169
256
2025
3969
3600
1024
0
256
196
121
169
361
841
1764
2209
1369
144
289
2116
3969
3249
841
9
324
225
100
144
361
841
1681
2209
1225
121
289
2025
3844
3249
841
9
324
196
81
121
324
784
1600
2209
1369
144
256
1936
3721
3364
961
4
324
225
100
121
289
729
1600
2209
1369
169
256
1936
3844
3364
961
4
324
256
100
100
324
729
1681
2209
1369
169
256
1936
3721
3249
961
4
289
225
81
121
324
676
1600
2304
1444
196
225
1936
3721
3364
1024
1
289
225
81
121
324
729
1600
2209
1444
196
225
1936
3721
3364
1024
1
324
256
100
144
324
729
1600
2116
1369
144
256
1936
3721
3249
900
4
324
225
81
121
256
676
1600
2209
1369
169
225
1849
3600
3249
961
1
289
225
64
100
225
625
1521
2209
1521
196
196
1849
3600
3364
1089
0
289
256
100
121
324
729
1600
2304
1521
169
225
1849
3600
3249
961
1
324
225
81
100
256
676
1521
2209
1369
196
196
1849
3721
3364
1024
0
289
256
100
100
289
729
1521
2209
1444
196
225
1849
3600
3364
961
1
324
256
81
100
289
729
1521
2209
1444
225
196
1764
3600
3364
1089
0
289
289
121
121
225
576
1444
2116
1521
225
225
1936
3721
3364
961
4
361
256
100
100
256
676
1521
2209
1444
225
196
1764
3721
3481
1024
1
324
256
81
81
256
676
1521
2209
1444
225
196
1764
3600
3364
1024
0
324
289
100
100
256
676
1521
2209
1521
196
289
1936
3721
3249
961
9
361
289
81
100
225
676
1444
2116
1521
256
169
1764
3481
3481
1225
1
324
289
100
100
256
625
1444
2209
1521
225
196
1764
3481
3364
1024
0
324
256
100
100
256
729
1521
2116
1369
196
225
1764
3481
3249
961
1
361
256
81
81
225
625
1369
2209
1444
256
169
1681
3481
3364
1156
0
361
324
81
64
196
529
1369
2209
1600
324
144
1600
3364
3364
1296
4
361
324
121
81
196
529
1369
2209
1600
324
121
1681
3481
3364
1225
4
324
324
100
81
196
576
1444
2116
1600
324
100
1521
3364
3364
1296
9
324
324
100
64
196
576
1369
2209
1600
361
100
1600
3481
3600
1369
9
361
361
100
64
196
529
1296
2116
1521
324
81
1444
3364
3600
1521
16
324
400
100
81
196
529
1369
2209
1600
361
100
1521
3481
3481
1444
9
400
441
144
64
144
484
1296
2116
1600
361
81
1444
3249
3364
1521
25
324
400
144
64
169
484
1296
2116
1681
441
81
1681
3844
3721
1521
9
400
484
144
64
169
484
1225
2025
1600
400
64
1369
3136
3481
1600
36
361
441
169
81
144
441
1156
1936
1600
400
36
1296
3136
3600
1681
49
361
484
144
64
169
484
1156
1936
1600
400
49
1296
3136
3481
1681
49
361
484
144
64
144
441
1156
2025
1681
441
36
1225
3136
3481
1681
64
361
441
144
64
169
484
1156
1936
1521
400
36
1225
3136
3481
1681
49
324
484
144
64
144
441
1156
1936
1600
484
36
1225
3025
3481
1764
64
361
484
169
64
144
441
1156
1936
1600
484
25
1156
3249
3721
1849
49
361
529
169
81
169
441
1024
1764
1600
484
25
1156
3025
3481
1764
64
361
484
169
64
144
400
1089
1936
1681
484
25
1156
3025
3481
1764
64
361
529
169
81
144
400
1024
1849
1681
529
16
1156
2916
3481
1764
81
324
441
121
64
144
400
1024
1849
1600
484
25
1156
2916
3481
1849
81
361
529
169
64
121
400
1024
1764
1600
529
16
1089
2809
3481
1936
81
324
529
169
64
144
400
1024
1764
1600
484
16
1089
2916
3600
1849
100
324
529
169
64
121
400
1089
1849
1681
484
25
1156
3025
3364
1681
64
324
441
144
64
144
441
1024
1764
1521
484
9
1024
2809
3600
2025
100
324
529
169
64
121
400
1024
1764
1600
529
16
1089
2809
3481
1849
81
324
484
169
49
121
400
1024
1764
1600
529
9
1024
2704
3481
2025
121
289
529
169
64
144
361
961
1849
1681
576
1
900
2601
3481
2209
225
225
529
196
64
121
324
900
1681
1764
729
1
729
2401
3481
2401
324
196
529
169
36
81
361
841
1600
1849
900
36
441
2025
3481
2916
529
81
484
256
81
100
256
676
1521
1936
1024
64
361
1936
3481
2916
676
36
441
256
64
81
256
676
1521
2025
1156
121
256
1764
3481
3136
784
16
400
225
49
64
225
625
1521
2025
1225
121
225
1764
3364
3025
841
16
441
256
49
49
196
576
1444
2116
1296
144
256
1764
3249
3025
841
16
441
289
64
64
196
529
1296
2025
1369
225
169
1600
3249
3249
1024
1
400
324
81
49
169
529
1369
2116
1521
289
121
1600
3364
3136
1156
0
361
289
81
49
196
529
1296
2116
1444
289
144
1521
3249
3136
1225
1
361
361
81
64
169
484
1296
2025
1521
324
100
1444
3136
3249
1296
9
361
400
100
49
121
441
1225
1936
1444
361
64
1369
3249
3364
1444
9
441
484
121
49
121
441
1089
1849
1521
400
49
1225
3025
3364
1600
25
441
529
144
49
121
400
1089
1764
1444
361
49
1225
2916
3364
1600
36
400
529
144
49
144
400
1089
1849
1521
400
49
1225
3025
3481
1681
36
441
529
144
49
144
400
1089
1849
1444
400
49
1156
2916
3364
1600
25
400
484
100
36
121
400
1089
1849
1521
441
25
1156
3025
3364
1600
36
441
529
144
49
121
400
1089
1849
1521
441
36
1156
2916
3481
1681
36
400
576
144
36
121
400
1024
1849
1521
441
25
1156
2916
3364
1681
49
400
576
144
36
121
400
961
1764
1521
441
16
1024
2704
3364
1849
81
400
576
144
36
100
361
961
1764
1600
529
4
900
2500
3364
2025
169
289
625
196
49
100
324
841
1681
1681
625
0
729
2304
3364
2304
289
196
576
225
64
100
324
729
1521
1764
729
4
576
2209
3364
2500
441
121
529
256
64
100
256
729
1521
1764
900
25
400
1936
3364
2704
529
81
484
225
49
81
225
625
1444
1764
1024
81
324
1764
3249
2704
625
64
484
196
25
49
196
625
1521
2025
1156
100
289
1764
3249
2809
729
36
441
256
49
49
196
576
1369
1936
1225
144
196
1600
3249
2916
784
16
484
289
49
25
169
529
1296
2025
1296
169
196
1600
3136
2916
841
25
529
289
36
25
144
484
1296
2025
1296
144
196
1600
3136
2916
900
16
576
361
49
16
121
400
1225
2025
1369
256
144
1521
3249
3025
1024
1
529
400
81
25
100
400
1225
1936
1369
256
100
1369
3025
3025
1156
0
576
441
64
16
81
361
1089
1849
1369
324
64
1225
2916
3136
1369
4
576
576
121
16
81
324
961
1764
1444
441
16
1024
2601
3249
1764
64
441
625
169
36
81
289
784
1521
1521
529
1
841
2304
3249
2025
169
324
625
196
36
64
256
784
1521
1600
625
1
576
2025
3025
2209
289
196
576
225
36
81
256
729
1444
1764
784
25
400
1849
3249
2500
441
121
484
169
36
49
225
676
1444
1849
961
64
324
1764
3136
2704
676
49
484
256
36
25
169
529
1369
2025
1225
144
225
1681
3249
2809
729
36
529
289
36
25
121
484
1296
1936
1225
169
169
1521
3136
2916
841
16
576
361
64
16
100
441
1225
1936
1296
196
169
1521
3136
2916
900
16
576
361
64
25
100
400
1225
1936
1296
225
144
1521
3136
3025
1024
4
576
400
81
16
121
441
1225
1936
1369
256
121
1444
3136
3025
1156
0
529
441
100
25
121
441
1225
1936
1369
225
144
1444
2916
3025
1156
0
484
484
100
36
100
441
1156
1849
1369
256
121
1369
3136
3025
1089
0
529
441
81
16
81
361
1089
1849
1369
324
64
1225
2809
3136
1444
4
576
625
121
16
64
289
900
1764
1521
441
25
1024
2601
3136
1764
64
441
625
169
25
64
256
841
1600
1521
529
4
784
2304
3249
2116
196
324
625
196
36
64
256
729
1444
1600
676
4
441
1849
3136
2401
361
169
576
256
49
49
225
676
1444
1764
841
36
361
1936
3249
2704
576
100
576
256
49
49
196
625
1444
1849
961
64
289
1764
3136
2809
729
49
529
289
36
25
144
529
1296
1936
1225
144
196
1600
3136
2916
784
25
529
289
36
16
121
441
1296
1936
1296
196
169
1521
3025
2809
900
16
529
324
49
16
81
400
1225
1936
1369
225
144
1444
3025
2916
961
4
576
441
64
16
64
361
1089
1849
1369
289
81
1225
2916
3136
1296
1
576
576
100
16
64
289
961
1764
1444
400
36
1024
2704
3136
1681
36
484
625
144
25
64
289
841
1600
1444
529
1
784
2304
3025
1936
144
289
625
169
36
64
256
729
1444
1600
676
4
576
2025
3136
2304
324
196
625
256
49
64
256
676
1369
1681
841
25
400
1849
3249
2500
529
100
625
256
36
36
169
576
1444
1764
1024
64
289
1764
3364
2704
625
81
576
289
36
36
169
529
1296
1849
1089
100
289
1681
3136
2704
676
64
484
256
36
25
144
529
1369
1936
1225
144
225
1600
3136
2809
729
36
529
289
36
16
121
484
1296
1936
1225
169
196
1600
3136
2916
841
25
576
361
64
25
121
484
1225
1849
1225
196
169
1521
3136
3025
900
16
625
400
49
16
100
441
1296
1849
1296
225
144
1521
3136
2916
1024
4
576
400
64
16
81
400
1089
1764
1369
289
81
1225
2916
3136
1225
1
576
576
100
16
81
361
1024
1764
1369
289
64
1225
2809
3025
1369
4
576
625
121
16
49
289
900
1600
1296
400
16
961
2601
3136
1681
49
484
676
169
25
64
256
784
1444
1444
529
1
729
2116
3025
1936
196
324
625
196
25
49
225
676
1444
1600
729
9
484
1936
3025
2304
361
169
625
256
36
49
169
625
1369
1681
841
36
361
1681
3136
2601
529
100
576
289
36
36
169
529
1369
1849
1024
64
289
1681
3136
2704
625
81
576
289
36
25
144
529
1369
1849
1156
121
256
1681
3136
2704
676
49
576
324
36
16
100
484
1296
1936
1225
169
196
1600
3136
2809
784
25
576
361
36
9
81
400
1156
1849
1296
225
121
1444
3025
2916
961
9
625
484
64
9
64
289
961
1681
1369
361
36
1156
2809
3249
1681
36
484
625
196
64
100
324
900
1764
1600
441
25
1089
2809
3364
1764
81
400
576
196
49
121
324
841
1681
1600
529
4
841
2500
3249
2025
169
289
625
225
64
100
324
841
1600
1600
625
0
729
2304
3364
2209
225
225
625
225
49
81
289
729
1444
1681
729
4
576
2025
3136
2401
400
169
576
256
49
49
196
625
1369
1764
900
64
324
1764
3025
2601
529
81
576
289
36
36
144
529
1296
1849
1089
121
225
1681
3249
2809
729
36
484
289
49
36
144
529
1296
1849
1225
121
225
1681
3136
2809
784
25
529
324
49
25
144
484
1225
1936
1225
196
196
1521
3136
2916
900
16
529
400
64
25
100
441
1225
1849
1296
225
144
1521
3136
2916
961
9
529
400
49
9
81
361
1089
1764
1369
289
100
1369
3025
3136
1296
0
576
529
121
16
64
324
1024
1764
1444
361
49
1156
2809
3136
1369
4
625
625
144
16
64
289
841
1521
1369
441
16
961
2500
3249
1849
64
441
676
196
25
64
225
729
1444
1521
576
0
676
2116
3025
2025
225
256
676
225
36
64
225
625
1369
1600
784
16
441
1849
3136
2401
400
144
529
225
36
64
225
625
1369
1681
841
25
361
1764
3136
2601
529
100
576
256
36
36
196
625
1444
1764
961
64
289
1600
3025
2601
676
49
529
324
36
16
100
484
1296
1936
1225
169
196
1600
3136
2809
729
36
576
324
49
25
100
400
1225
1849
1225
144
196
1600
3136
2809
784
25
625
361
36
9
81
361
1156
1764
1225
225
121
1369
2916
2916
1024
4
625
529
81
16
64
361
961
1764
1296
289
64
1225
2704
3025
1369
4
625
676
144
16
49
256
841
1521
1369
400
16
900
2401
3025
1681
64
484
729
169
25
36
225
729
1369
1444
576
0
676
2116
3025
1936
169
324
676
225
25
49
196
625
1369
1521
676
9
441
1849
2916
2209
361
196
676
256
25
25
144
576
1296
1600
841
49
324
1681
3025
2500
484
100
676
289
16
16
144
529
1296
1681
961
81
256
1600
3025
2601
676
81
676
324
25
9
100
441
1156
1764
1156
144
196
1444
2809
2601
784
25
676
400
36
4
64
361
1089
1764
1225
225
121
1369
2809
2916
1024
4
676
529
64
4
49
324
961
1521
1296
289
49
1089
2500
2916
1369
4
625
729
144
9
49
256
676
1369
1296
484
1
729
2116
2809
1849
121
361
729
196
25
36
196
625
1296
1444
576
1
484
1849
2916
2025
256
256
729
256
25
25
169
576
1296
1600
784
25
361
1764
3025
2304
400
144
625
256
25
16
144
576
1296
1600
841
49
324
1681
2916
2500
576
121
729
324
25
9
121
441
1296
1764
1024
100
225
1521
2916
2601
625
81
676
324
16
4
64
400
1089
1681
1156
169
169
1444
2809
2601
841
36
729
484
36
1
49
289
961
1600
1225
225
81
1225
2601
2809
1225
0
784
729
121
9
36
225
784
1444
1225
361
25
841
2304
2916
1600
49
576
784
196
9
25
225
676
1296
1369
529
0
529
1849
2809
1936
225
289
729
256
16
25
169
576
1225
1444
676
16
361
1681
2916
2304
400
169
729
289
16
16
121
529
1296
1681
900
36
324
1600
2809
2304
529
100
676
324
16
9
81
400
1156
1764
1024
121
196
1521
2916
2601
676
64
784
441
25
0
36
324
1089
1681
1225
196
121
1296
2809
2704
841
16
784
576
49
0
25
256
900
1521
1156
256
49
1089
2401
2809
1296
1
784
784
100
1
16
196
625
1296
1296
400
9
676
1936
2704
1681
81
441
784
225
9
16
144
529
1225
1444
625
16
400
1600
2809
2209
324
225
729
289
16
9
121
529
1225
1521
784
36
324
1600
2809
2401
529
121
729
361
25
4
100
441
1156
1600
961
100
225
1444
2809
2500
676
64
729
400
25
0
36
324
1089
1764
1225
196
100
1296
2704
2704
900
9
784
625
64
0
25
225
784
1444
1225
324
25
900
2209
2704
1444
25
625
729
121
4
25
196
625
1296
1369
484
1
625
2025
2704
1764
121
400
841
256
16
25
144
529
1156
1369
625
4
441
1681
2704
2025
289
256
784
289
9
4
100
484
1156
1600
841
64
289
1521
2704
2401
625
81
784
400
25
1
64
361
1089
1681
1156
169
169
1444
2916
2704
784
25
729
484
36
0
36
289
961
1600
1225
256
81
1156
2601
2704
1089
0
729
729
81
0
25
196
676
1296
1225
441
1
625
1936
2704
1764
100
441
784
196
4
4
121
576
1225
1444
676
16
324
1600
2601
2025
256
225
676
225
4
9
100
441
1089
1521
784
49
289
1521
2809
2401
529
121
841
400
25
1
81
400
1156
1600
1024
100
225
1521
2809
2500
676
64
784
400
16
0
49
324
1024
1681
1156
225
100
1225
2601
2704
1024
9
841
676
64
0
25
225
729
1369
1225
324
25
900
2209
2704
1369
16
676
784
144
0
9
144
576
1225
1296
484
0
484
1681
2500
1849
169
361
841
256
9
9
100
484
1089
1444
729
25
289
1521
2704
2209
400
196
784
324
9
1
64
324
1024
1600
961
121
196
1444
2809
2500
676
64
841
484
25
0
25
289
1024
1600
1089
196
121
1225
2601
2601
1024
9
841
625
64
0
25
256
841
1444
1225
289
25
900
2116
2601
1369
16
576
729
121
1
16
169
576
1296
1296
529
0
676
1936
2601
1600
100
400
784
225
9
16
144
529
1156
1369
529
9
324
1521
2601
2025
324
225
784
256
4
1
81
400
1089
1521
900
81
225
1444
2704
2500
676
64
900
529
36
0
36
289
961
1600
1089
169
121
1296
2601
2809
1024
4
841
676
64
0
25
225
784
1444
1156
361
25
841
2209
2704
1444
36
576
784
121
1
16
169
625
1296
1296
484
0
484
1681
2500
1764
169
324
784
225
4
4
121
484
1156
1521
729
36
289
1444
2704
2209
441
121
676
324
9
1
81
400
1089
1681
961
121
169
1444
2704
2500
729
49
841
529
25
0
36
289
961
1600
1089
196
121
1225
2500
2601
961
9
841
784
64
1
9
169
625
1296
1225
400
4
676
1936
2500
1600
81
441
784
196
4
16
144
576
1225
1369
676
16
324
1521
2601
2116
289
256
784
256
4
4
81
400
1089
1521
841
81
256
1444
2704
2500
625
100
900
441
9
0
36
361
1156
1681
1024
121
169
1296
2704
2500
784
36
900
576
36
1
25
256
900
1521
1156
225
49
1024
2401
2704
1225
0
784
729
100
0
9
144
625
1225
1225
441
1
625
1849
2500
1600
100
441
784
196
4
16
144
484
1156
1369
529
4
361
1521
2500
1936
225
289
784
256
4
4
81
441
1089
1521
784
49
289
1521
2601
2209
529
121
841
400
16
0
36
324
1089
1600
1024
121
169
1369
2704
2601
784
64
841
529
36
0
16
256
961
1600
1156
225
64
1089
2401
2704
1089
1
841
729
64
0
16
196
676
1296
1225
400
4
625
1849
2500
1521
81
484
841
169
0
4
121
529
1156
1369
625
16
324
1444
2500
2025
289
256
784
256
4
1
81
400
1089
1521
841
64
256
1444
2704
2401
625
81
900
529
25
0
25
289
1024
1681
1024
144
121
1296
2704
2601
900
25
841
625
49
0
25
256
841
1444
1156
289
49
1024
2304
2601
1225
1
729
729
100
0
9
169
576
1225
1225
484
0
529
1681
2500
1764
144
361
784
225
4
4
100
441
1089
1369
676
36
256
1444
2401
1936
324
225
784
256
1
0
64
400
1024
1521
841
81
225
1444
2601
2401
676
81
900
529
25
1
25
256
961
1521
1089
196
100
1156
2401
2601
961
9
900
729
64
1
9
196
676
1225
1225
361
4
625
1936
2601
1600
100
441
784
196
1
9
121
484
1156
1369
676
16
324
1369
2601
2025
289
256
841
289
9
1
81
400
1024
1444
784
49
256
1444
2601
2304
625
100
900
484
25
0
25
324
1024
1600
1024
144
144
1369
2704
2500
784
49
900
576
25
4
16
256
900
1521
1156
256
64
1024
2401
2601
1156
0
841
784
100
0
9
144
625
1225
1225
441
1
576
1764
2500
1600
81
441
841
196
1
1
100
441
1089
1369
625
25
256
1369
2401
1936
289
256
841
289
4
0
64
361
1089
1521
841
64
256
1521
2704
2401
676
81
961
576
36
0
36
289
961
1600
1089
169
121
1225
2601
2704
1024
9
900
676
49
1
16
225
784
1444
1225
324
16
784
2025
2500
1444
16
625
729
121
1
9
144
576
1225
1296
529
4
441
1600
2401
1764
169
361
784
225
1
1
100
400
1089
1369
729
36
256
1369
2500
2116
400
196
900
324
4
0
49
324
1024
1521
900
100
196
1369
2601
2401
625
81
900
484
25
0
16
256
961
1600
1089
196
121
1225
2500
2601
961
16
900
676
49
1
9
196
676
1369
1156
324
9
729
1849
2500
1521
49
529
841
169
1
4
144
529
1156
1369
576
9
324
1444
2401
1849
225
324
900
256
1
0
64
361
1024
1444
784
49
225
1369
2601
2209
576
121
961
484
16
0
25
289
961
1521
1024
144
144
1296
2601
2500
841
36
961
625
36
1
16
225
784
1444
1156
256
49
900
2209
2500
1225
1
676
784
100
0
16
169
576
1156
1156
441
0
484
1600
2401
1600
121
441
784
196
1
4
121
441
1024
1296
625
25
289
1369
2304
1936
289
289
900
289
1
0
64
400
1089
1521
784
49
256
1444
2601
2401
576
100
900
441
25
0
25
289
961
1600
1024
169
144
1225
2500
2500
900
25
900
625
36
1
9
196
729
1444
1156
289
25
841
2025
2500
1296
9
676
784
144
0
9
121
529
1156
1225
529
9
361
1369
2401
1764
225
324
900
225
4
0
81
400
1024
1369
729
36
256
1444
2500
2209
529
169
961
484
16
1
25
256
961
1521
961
121
169
1296
2601
2500
841
49
1024
676
49
1
16
225
841
1444
1024
225
64
1024
2304
2500
1024
1
841
784
81
0
4
144
576
1156
1156
441
0
484
1600
2401
1600
100
400
784
196
1
1
100
441
1089
1369
625
25
256
1296
2401
2025
289
225
900
289
4
0
64
361
1024
1369
841
64
196
1369
2500
2304
625
100
961
529
16
1
16
289
961
1521
961
144
121
1156
2500
2500
1024
9
900
729
64
0
16
225
729
1296
1089
324
16
729
1849
2401
1369
36
576
784
144
1
4
121
484
1089
1225
484
4
400
1444
2209
1681
169
361
841
196
0
0
64
400
1089
1444
729
36
256
1444
2500
2209
484
169
900
441
9
0
25
289
1024
1521
900
121
169
1296
2500
2500
784
64
1024
625
36
1
16
256
900
1521
1089
225
81
1089
2304
2500
1089
1
841
729
81
0
9
169
576
1225
1156
441
0
529
1681
2304
1521
81
484
841
196
0
1
81
400
1089
1296
676
25
289
1369
2304
1936
361
225
900
324
4
1
36
289
961
1444
900
81
169
1296
2401
2304
729
49
961
625
36
1
9
196
784
1296
1024
225
49
961
2116
2500
1225
1
729
784
121
1
9
144
625
1225
1296
484
0
484
1600
2401
1600
121
361
784
225
1
1
100
441
1089
1369
625
25
256
1369
2304
1936
361
225
900
324
4
1
36
324
961
1444
841
81
169
1296
2401
2401
729
64
1024
676
36
4
9
196
841
1444
1024
196
81
1024
2209
2500
1156
0
784
841
100
0
9
169
625
1225
1225
441
1
529
1681
2401
1600
100
400
729
196
1
9
121
484
1089
1296
625
16
289
1369
2401
1936
256
289
900
289
0
0
49
324
961
1444
784
81
196
1296
2500
2304
625
100
1024
576
25
1
16
256
961
1521
1024
169
144
1225
2500
2500
784
36
961
676
36
4
4
169
676
1369
1089
289
36
841
2116
2601
1369
16
676
784
121
0
9
169
576
1156
1296
529
1
400
1444
2304
1681
144
361
900
256
1
0
81
400
1024
1369
676
25
256
1369
2401
2116
441
169
961
400
9
1
25
289
961
1521
900
100
196
1296
2601
2401
784
49
1024
676
36
4
4
196
784
1369
1024
225
64
900
2116
2500
1156
0
841
900
121
0
4
144
529
1089
1156
400
0
441
1521
2209
1600
121
400
841
196
0
0
100
441
1024
1296
676
36
256
1296
2209
1936
324
256
900
289
0
1
25
289
961
1444
784
81
196
1225
2401
2304
676
81
1024
625
25
4
9
225
784
1369
900
144
64
900
2116
2401
1089
0
784
841
121
0
4
121
529
1156
1156
400
1
484
1521
2304
1521
100
441
900
225
0
1
81
400
1024
1225
625
25
256
1296
2209
1936
324
225
900
324
1
4
25
289
900
1369
841
81
144
1156
2304
2304
676
81
1156
729
36
9
1
169
729
1225
841
169
64
841
2025
2304
1156
0
784
841
121
1
1
121
484
1089
1089
441
1
361
1369
2116
1600
121
441
900
225
0
0
64
361
961
1369
676
36
225
1225
2304
1936
400
196
1089
441
4
16
9
225
900
1369
900
81
169
1156
2304
2209
729
49
1089
784
36
4
1
169
676
1156
900
196
36
784
1936
2209
1156
1
784
900
144
0
0
100
484
1089
1089
400
0
361
1296
2116
1600
144
400
961
256
0
4
49
361
961
1296
676
36
196
1296
2209
2025
441
196
1089
529
4
9
4
196
784
1369
784
121
121
1089
2116
2116
784
36
1024
784
49
9
1
144
576
1089
900
225
25
676
1681
2025
1156
4
729
961
169
0
0
81
441
961
1089
529
9
256
1225
2209
1764
289
289
1024
361
1
4
25
289
961
1296
729
64
196
1225
2304
2116
625
100
1089
676
25
16
1
196
841
1296
841
121
100
1024
2116
2209
784
36
1089
784
49
9
0
144
576
1156
961
256
9
576
1600
2116
1296
25
625
961
196
0
0
64
400
961
1156
529
25
225
1225
2116
1764
256
361
1024
324
0
16
16
289
900
1296
729
49
196
1156
2116
2025
484
144
1089
576
9
9
4
196
729
1296
784
121
121
1024
2116
2209
900
25
1024
841
64
9
1
144
625
1156
1024
289
16
676
1764
2209
1225
9
676
1024
169
0
1
81
441
1024
1156
441
4
289
1296
2209
1681
196
361
1089
324
1
4
36
324
900
1225
625
36
225
1225
2209
1936
441
169
1089
529
4
9
4
196
841
1296
784
81
121
1089
2116
2116
784
36
1089
900
64
9
1
121
529
1089
1024
324
9
625
1600
2116
1296
25
676
961
169
1
0
81
400
961
1156
529
16
256
1156
2116
1681
256
256
1024
361
0
9
16
256
900
1296
676
64
196
1225
2304
2116
576
100
1156
676
25
16
1
169
784
1225
784
100
100
961
1936
2116
784
36
1024
784
64
9
0
121
529
1024
900
289
9
484
1444
2025
1296
49
576
961
225
0
0
64
361
961
1225
625
25
225
1156
2209
1936
324
256
1089
441
1
9
16
225
900
1296
676
49
169
1225
2209
2116
625
100
1156
676
16
9
4
196
784
1296
841
121
100
961
1936
2209
961
9
1024
900
100
4
1
144
529
1089
1024
289
9
484
1444
2116
1444
64
576
1024
225
0
0
49
361
1024
1225
576
25
225
1225
2209
1849
324
289
1024
361
1
4
25
289
961
1296
729
64
196
1296
2304
2116
576
144
1225
729
25
9
4
196
