289
361
324
9
729
3136
2601
169
256
289
49
1
9
4
1
16
100
289
576
400
1
1444
3249
1156
9
256
64
9
196
225
81
0
36
196
576
1089
576
36
1521
1600
64
256
196
4
225
441
361
169
36
16
289
841
729
25
729
1296
64
484
784
169
36
484
676
361
144
9
49
324
529
100
400
1369
256
324
1024
441
9
196
441
289
144
36
0
49
196
81
289
1681
1156
4
841
784
169
0
49
49
16
1
4
49
196
196
4
1225
2601
841
49
625
361
16
64
100
49
1
4
36
169
400
256
100
1849
2025
144
289
361
25
36
100
81
25
4
36
400
900
729
16
1024
2304
576
100
441
81
36
324
361
169
36
1
144
529
784
256
225
1681
961
16
576
324
0
169
361
289
121
16
4
121
441
361
16
1296
1764
100
484
676
225
0
121
225
169
64
1
100
441
529
25
841
1936
361
289
900
324
0
256
400
225
81
9
25
196
400
196
169
1600
1089
1
676
484
49
36
144
121
64
16
0
81
289
256
16
1369
2304
400
289
729
289
9
81
169
81
9
9
81
225
361
121
361
2025
1369
4
484
441
36
49
169
100
25
0
16
144
441
324
16
1444
2401
361
256
576
169
9
169
225
81
9
9
169
484
625
144
441
1936
841
36
484
196
0
121
256
225
100
16
1
100
361
324
16
1156
1444
36
529
625
100
9
121
196
121
64
1
81
400
484
25
784
2025
484
196
841
361
1
169
256
144
49
1
9
121
289
144
121
1600
1369
9
576
529
100
4
100
100
49
16
4
121
361
289
9
1444
2601
484
289
841
324
0
144
225
100
9
4
100
324
529
169
289
1936
1156
0
441
256
0
100
144
81
16
0
16
121
361
324
9
1296
2116
256
324
676
169
9
196
256
81
16
1
100
361
484
100
324
1681
676
64
625
289
0
121
256
169
64
16
1
81
361
289
36
1521
1936
121
484
729
169
1
100
144
81
25
4
121
400
441
9
900
2209
729
121
841
400
4
144
256
121
36
4
9
121
324
196
100
1600
1600
36
529
625
100
9
100
121
49
9
1
121
400
400
1
1024
2209
576
144
576
256
1
169
289
100
16
4
100
289
484
100
361
1764
900
9
484
289
9
100
361
361
144
9
64
400
841
676
0
1296
2304
361
225
529
121
25
361
529
225
25
25
484
1156
1156
144
625
2025
576
81
441
100
36
484
729
441
100
4
225
729
1089
441
81
1444
961
1
361
144
4
256
576
529
225
25
36
441
1089
961
9
1225
1936
225
256
441
49
100
529
676
324
36
64
576
1369
1296
144
676
1936
400
169
400
64
81
625
841
484
100
16
400
1156
1369
361
324
1681
625
64
400
64
49
484
784
576
169
1
144
729
1369
784
16
1369
1225
9
289
169
1
225
576
625
289
25
64
576
1444
1225
49
961
1764
225
196
289
16
121
625
784
361
49
49
625
1521
1521
225
529
1849
441
121
361
36
121
729
1024
576
144
9
441
1225
1600
441
289
1600
576
64
361
64
81
625
1024
625
169
0
225
900
1444
729
49
1444
1156
4
289
144
4
225
625
676
361
49
81
676
1521
1296
49
961
1764
225
196
289
16
144
625
784
441
64
64
676
1681
1600
225
576
1849
400
121
361
25
169
841
1089
576
121
25
576
1600
1681
324
441
1764
484
81
324
36
100
676
961
576
144
4
400
1089
1521
625
144
1600
841
4
324
100
25
400
729
625
256
16
100
729
1681
1156
0
1444
1600
81
196
169
0
225
625
625
289
25
100
729
1600
1369
64
900
1764
225
196
324
9
169
729
900
484
81
36
676
1681
1681
289
484
1764
484
81
324
49
100
676
961
576
169
1
324
1024
1600
676
100
1444
784
9
289
64
49
400
676
625
289
16
81
676
1521
1156
1
1296
1681
121
225
225
0
225
676
676
324
25
100
784
1681
1444
121
729
1681
256
144
196
1
196
676
900
441
81
36
576
1764
1936
400
484
1849
484
100
361
36
144
784
1024
576
121
9
441
1296
1521
441
256
1600
625
36
289
36
81
576
841
576
169
1
225
900
1681
1024
16
1444
1225
16
225
100
36
361
676
484
196
9
100
676
1521
1156
4
1156
1764
144
196
196
1
169
676
841
484
64
64
729
1681
1681
196
625
1681
289
169
289
25
144
729
961
529
121
25
529
1444
1521
324
324
1521
400
64
256
36
121
729
1024
576
144
4
441
1225
1681
576
169
1681
729
16
289
49
64
484
729
625
256
4
121
841
1681
1089
1
1444
1444
64
256
169
1
256
625
729
484
64
121
1089
2116
1444
49
1024
1764
196
196
225
0
225
729
841
441
64
64
729
1681
1681
225
625
1764
324
121
289
16
144
676
961
576
121
25
576
1521
1600
324
441
1764
529
64
324
49
100
729
1024
576
144
9
441
1296
1764
625
196
1681
841
9
324
100
36
484
900
676
256
4
121
784
1764
1156
0
1369
1444
36
256
144
4
289
729
784
361
36
64
729
1681
1600
121
841
1681
169
256
289
1
256
841
1024
484
64
64
729
1764
1681
256
529
1764
400
100
289
9
169
841
1024
576
121
36
676
1681
1764
361
400
1764
576
49
289
25
100
676
961
576
144
4
361
1156
1681
729
81
1521
961
0
256
81
25
324
676
625
324
25
81
676
1600
1369
25
1089
1600
121
196
196
0
256
784
900
400
49
81
784
1764
1681
225
625
1764
400
121
361
49
100
784
1156
625
144
25
625
1681
1764
289
529
1764
400
121
289
16
144
676
961
576
121
9
484
1444
1681
529
225
1681
625
36
324
36
100
625
900
625
196
0
256
961
1521
841
36
1369
1024
0
289
81
25
361
729
729
361
36
81
729
1681
1521
81
841
1681
225
169
256
1
225
841
1024
441
36
81
784
1764
1764
324
441
1681
484
64
256
25
169
784
1089
676
144
25
576
1521
1764
484
256
1681
625
25
225
25
100
576
841
576
144
1
361
1089
1600
784
49
1521
1089
4
196
64
25
289
625
729
324
16
121
784
1764
1296
9
1156
1444
81
196
144
1
289
729
784
400
36
100
784
1600
1521
196
576
1521
256
144
225
4
196
841
1024
529
64
64
625
1521
1600
289
441
1681
400
100
289
16
144
784
1024
576
100
25
576
1444
1681
361
361
1764
576
64
289
25
121
625
900
576
144
9
361
1024
1600
841
36
1444
841
0
225
49
49
441
729
625
289
16
100
784
1681
1369
16
1225
1849
144
256
225
0
289
784
841
361
25
100
784
1764
1521
100
784
1681
225
169
225
0
256
784
841
441
81
36
625
1600
1681
324
441
1764
484
81
324
36
100
729
961
529
121
4
441
1225
1600
625
121
1444
784
4
225
36
64
441
729
625
225
4
121
625
1444
1225
9
1089
1600
144
169
169
0
256
729
784
324
25
121
784
1764
1521
121
729
1600
256
144
196
1
196
784
961
484
81
49
729
1849
1849
361
441
1764
484
81
289
25
144
841
1156
576
121
16
484
1369
1681
529
225
1681
676
16
256
36
100
576
841
576
196
0
256
1024
1764
900
25
1296
1024
1
225
64
25
361
729
729
324
25
100
841
1849
1369
36
1024
1600
144
144
169
1
256
729
841
400
25
100
841
1849
1600
169
676
1681
289
169
289
1
225
900
1024
529
81
36
625
1600
1764
361
441
1600
361
100
289
9
196
841
1024
576
121
16
484
1369
1764
576
256
1849
676
25
289
36
100
625
900
576
169
1
289
1024
1681
961
25
1444
1089
4
256
81
64
441
729
676
324
25
144
961
1849
1369
25
1089
1681
169
169
144
1
289
729
841
361
25
81
729
1849
1764
196
676
1764
289
144
256
9
196
841
1024
576
100
36
676
1764
1849
324
484
1764
484
64
256
25
100
729
1024
576
100
16
529
1444
1849
576
256
1764
729
9
196
25
100
625
900
676
225
0
289
1089
1849
1024
9
1369
1089
16
144
49
36
361
676
676
324
16
121
841
1849
1521
36
961
1444
81
196
169
4
361
961
1156
441
16
121
841
1764
1600
144
729
1600
225
144
225
4
225
841
1089
529
100
49
784
1849
1849
289
529
1849
441
81
256
25
144
784
1024
576
100
25
625
1681
1936
484
324
1764
625
36
225
16
169
676
841
529
169
1
400
1296
1849
900
64
1521
961
0
196
36
64
400
784
729
324
25
81
784
1849
1600
81
900
1521
144
144
169
1
289
841
961
484
49
64
841
1936
1936
256
676
1849
324
196
324
9
196
900
1089
576
121
16
576
1600
1936
484
324
1681
576
49
225
16
144
784
1156
729
121
25
529
1521
1936
625
169
1521
676
9
225
25
100
576
900
729
225
1
196
961
1849
1156
0
1225
1296
25
196
100
16
361
784
784
361
16
144
841
1849
1444
36
1024
1600
121
196
169
1
289
784
900
441
49
81
784
1849
1681
196
676
1681
256
144
256
4
169
784
1024
576
100
49
729
1764
1849
324
484
1849
625
36
289
36
100
729
1089
676
169
16
576
1600
2025
676
225
1764
729
16
256
25
121
625
961
625
196
1
289
1024
1849
961
25
1369
1089
9
225
64
36
361
676
676
324
25
100
784
1764
1444
49
961
1600
144
196
196
0
256
784
841
400
64
49
676
1764
1681
256
529
1681
324
121
324
25
169
900
1089
576
100
36
625
1600
1764
324
441
1681
484
64
289
25
121
676
961
576
144
9
441
1296
1681
676
121
1444
729
1
196
36
81
441
729
676
256
4
144
784
1600
1156
1
1225
1521
81
196
169
1
289
676
676
289
25
81
729
1681
1521
121
729
1764
256
144
225
4
196
784
900
484
81
36
676
1681
1764
361
441
1764
484
81
289
25
121
625
961
625
169
4
400
1296
1681
625
121
1444
784
4
256
49
64
441
784
625
256
9
100
676
1521
1225
16
1089
1444
100
144
121
4
289
676
729
289
25
100
729
1681
1369
81
841
1600
196
196
256
1
196
784
900
441
49
49
676
1600
1600
289
484
1681
400
100
256
16
121
676
900
576
144
9
529
1521
1764
484
289
1764
676
16
256
36
64
529
841
576
169
0
196
784
1521
900
9
1369
1369
36
256
121
4
256
625
625
289
16
81
676
1600
1369
64
900
1849
256
169
256
4
196
729
961
484
64
100
784
1681
1681
289
484
1681
441
81
289
25
121
729
1024
576
121
9
441
1225
1681
576
169
1600
625
16
289
49
81
529
784
625
225
4
169
841
1600
900
16
1225
1156
36
169
100
4
256
625
625
256
25
100
729
1600
1225
16
961
1600
144
196
225
1
196
676
841
400
64
64
676
1521
1444
169
576
1600
324
121
289
25
144
784
1024
529
100
16
576
1521
1681
256
441
1600
361
81
289
25
121
676
961
576
144
4
361
1156
1521
484
169
1444
729
9
324
81
36
441
676
529
225
4
100
625
1444
1024
0
1296
1600
100
225
196
0
256
676
729
324
25
81
676
1521
1444
100
729
1600
225
169
256
4
144
625
841
529
81
36
576
1444
1600
324
400
1764
484
81
361
49
121
729
961
625
169
4
441
1225
1600
576
169
1600
729
16
289
64
49
441
729
576
196
4
100
625
1444
961
0
1296
1521
81
256
196
0
256
676
676
256
25
100
676
1521
1369
81
729
1681
225
169
361
16
225
900
961
400
64
49
625
1600
1681
324
400
1764
484
49
289
36
121
676
961
576
144
1
324
1089
1521
625
100
1444
784
9
289
64
36
324
576
576
256
25
64
625
1369
1024
1
1156
1600
100
225
196
0
225
625
676
289
36
64
676
1444
1225
121
576
1444
196
169
256
4
196
729
900
484
81
49
625
1600
1521
256
441
1681
441
81
289
25
121
625
841
484
144
4
324
1156
1521
529
169
1521
784
9
289
81
25
361
625
576
256
25
81
676
1444
1089
0
1225
1521
81
225
196
0
256
676
676
289
25
64
625
1521
1369
121
784
1849
324
196
361
25
144
729
961
484
81
25
625
1444
1600
289
441
1764
484
81
324
36
100
676
961
576
121
4
400
1156
1600
529
169
1521
729
16
289
64
36
400
729
625
256
4
100
676
1444
900
1
1296
1444
64
256
225
0
196
676
729
361
36
81
676
1600
1369
100
841
1764
256
169
324
9
169
676
841
400
64
49
576
1444
1521
324
400
1764
484
81
289
36
100
676
961
529
121
4
361
1089
1521
576
121
1521
729
1
225
64
25
361
676
625
289
25
81
729
1600
1024
0
1296
1444
64
256
196
0
196
676
729
361
36
64
576
1521
1369
144
625
1600
256
169
289
16
169
784
900
484
64
36
625
1444
1521
289
400
1600
441
81
289
36
121
625
900
529
169
1
289
1024
1681
729
100
1521
841
1
225
64
49
400
676
576
225
16
81
676
1521
1089
0
1225
1521
81
256
225
0
196
676
729
361
36
81
676
1600
1444
144
676
1681
289
144
289
4
196
729
784
400
64
25
529
1444
1600
361
400
1681
529
49
289
25
81
576
784
576
169
1
289
961
1521
784
49
1444
1089
1
289
100
16
324
676
676
289
25
64
625
1444
1156
16
1024
1681
121
225
256
0
256
729
729
324
36
81
676
1521
1521
144
729
1681
256
144
256
16
121
676
900
484
100
25
625
1600
1600
256
529
1849
576
49
324
100
49
625
1024
625
144
4
441
1296
1600
529
225
1600
676
25
256
49
64
484
729
529
196
4
144
784
1521
961
4
1296
1369
64
256
169
1
256
676
676
324
25
81
676
1521
1369
100
784
1681
256
121
256
25
121
676
900
484
100
25
625
1600
1600
225
484
1681
400
81
256
9
144
729
1089
625
121
25
576
1521
1849
676
1
361
324
100
81
144
324
729
1444
1521
625
1
625
2304
3600
2500
484
9
144
169
225
400
676
900
1296
1444
676
16
441
2116
3481
2704
576
16
256
289
361
529
729
1089
1600
1600
625
1
576
2601
4489
3481
841
0
169
256
400
676
961
1296
1936
2025
961
25
484
2401
4356
3721
1089
25
64
121
256
484
841
1369
2116
2304
1156
64
324
2116
3969
3481
961
9
64
100
169
361
625
1024
1764
2116
1156
81
289
1849
3721
3025
784
1
100
144
196
361
576
961
1600
1936
961
49
324
2025
3721
3136
841
1
121
256
289
400
625
961
1521
1764
1024
64
289
2025
3969
3481
1089
16
121
196
324
529
784
1225
1849
2116
1024
64
400
2209
4225
3600
1089
9
81
169
256
441
729
1156
1764
2116
1156
100
324
2025
3969
3364
1024
9
81
144
225
400
676
1156
1764
2116
1089
81
400
2304
4096
3364
900
0
144
196
256
441
676
1024
1764
1849
1024
64
361
2116
3844
3249
900
4
121
169
256
441
729
1156
1764
1936
1024
49
400
2209
3969
3249
961
4
121
169
256
484
729
1024
1764
2025
1024
25
484
2304
3844
3025
784
1
121
196
256
484
729
1089
1681
1936
961
49
361
2116
3969
3364
961
4
121
196
289
529
729
1089
1764
1936
961
49
324
2116
4225
3721
1156
16
121
225
289
441
729
1156
1936
2116
1156
64
361
2304
4096
3481
1024
16
81
169
289
484
729
1156
1849
2116
1089
81
361
2116
4096
3600
961
1
121
169
256
441
729
1024
1764
1936
961
49
361
2025
3844
3364
900
4
100
196
289
484
625
1024
1681
1936
1024
49
400
2304
4096
3249
900
1
144
225
324
484
784
1156
1849
2025
1024
49
441
2304
4356
3600
961
9
81
196
324
529
729
1156
1936
2304
1225
100
324
2116
4356
3721
1156
16
81
169
256
484
784
1225
1936
2209
1156
64
400
2401
4225
3364
1024
9
81
169
289
529
729
1089
1764
2116
1089
64
400
2304
3969
3364
1024
9
121
169
289
576
784
1225
2025
2025
900
16
484
2401
4225
3364
900
1
121
196
289
529
784
1225
2025
2209
1089
36
529
2401
4489
3600
961
1
121
169
289
529
784
1225
1936
2209
1089
64
529
2601
4761
3844
1024
1
144
225
324
576
841
1369
2116
2209
1089
49
529
2704
4356
3364
1024
9
100
169
289
529
841
1444
2304
2304
1024
25
625
2809
4761
3721
961
1
144
196
289
576
900
1444
2116
2209
1089
36
529
2704
4624
3721
1024
4
121
196
324
529
841
1369
2116
2304
1089
25
676
2916
4900
3721
900
0
169
225
256
529
900
1444
2209
2401
1156
36
625
2916
5041
3969
961
0
144
196
324
576
961
1521
2401
2500
1089
36
676
3136
5329
4096
1089
1
144
225
400
729
1024
1600
2500
2500
1089
16
900
3481
5625
4096
1024
1
169
225
400
729
1089
1681
2601
2601
1089
4
1089
3844
5476
3721
729
4
225
324
441
576
841
1681
2809
2809
1156
0
1156
3969
5625
3844
784
1
169
256
484
784
1089
1681
2500
2601
1024
0
1296
4225
5776
3600
625
16
225
324
484
784
1024
1764
2809
2500
900
4
1521
4489
5776
3481
625
16
225
324
484
841
1089
1764
2704
2401
841
16
1521
4356
5776
3481
576
16
289
400
576
841
1156
1936
2916
2401
676
36
1849
4900
5776
3136
400
36
225
361
576
784
1156
2025
2916
2401
625
49
1936
5041
5776
2809
324
36
225
289
529
841
1296
2209
3025
2401
576
121
2304
5329
5625
2500
225
49
225
256
484
841
1369
2401
3136
2209
400
196
2401
5476
5625
2304
169
49
196
361
676
1089
1521
2500
3136
1936
289
324
2809
5929
5625
2025
100
64
225
441
729
1024
1600
2601
3025
1681
169
441
3136
6241
5476
1600
16
144
225
361
676
1024
1681
2704
2916
1369
36
841
3721
5929
4489
1156
4
169
361
529
784
1024
1681
2601
2809
1296
9
1024
3969
5776
4096
1024
1
169
289
529
841
1089
1764
2809
2704
1089
0
1369
4489
5929
3844
729
9
225
324
484
784
1156
1849
2809
2704
1024
0
1444
4624
6241
3844
676
16
289
361
576
841
1089
1849
2809
2500
784
9
1444
4489
6084
3844
676
16
256
400
576
841
1225
2025
3025
2601
784
16
1764
4900
6084
3481
529
25
256
324
484
841
1296
2116
2916
2401
676
49
1849
5041
6084
3364
400
36
144
225
529
1024
1521
2500
3364
2401
625
81
2209
5625
6084
2809
256
64
289
324
484
841
1521
2500
3249
2304
484
121
2304
5625
6084
2704
196
64
225
361
625
961
1225
2209
3249
2401
529
196
2809
6084
5929
2304
169
64
225
441
625
961
1444
2401
3364
2304
324
400
3136
6084
5476
1849
100
16
64
289
784
1225
1764
2601
3136
1936
225
361
2916
6084
5476
1849
36
121
225
361
676
1089
1764
2809
3136
1600
81
729
3721
6084
4761
1369
25
100
289
576
900
1024
1521
2704
2916
1369
25
900
3844
6084
4624
1089
0
196
289
400
676
1089
1849
3025
2916
1225
4
1225
4356
6241
3969
784
4
256
441
576
729
900
1444
2401
2601
1225
9
1089
3969
5929
4096
841
4
225
361
529
676
961
1681
2704
2704
1156
4
1225
4225
6241
4225
841
1
196
289
484
841
1156
2025
3025
2601
900
0
1089
3969
6241
4489
961
9
256
225
361
784
1225
1849
2916
2916
1225
4
1156
4225
6084
4225
900
0
169
289
529
900
1089
1681
2809
2704
1089
1
1225
4225
6084
4096
841
4
225
324
576
900
1156
1600
2304
2401
1024
4
1024
3844
5929
4225
841
4
196
256
441
784
1225
1849
2809
2704
1156
1
1369
4761
6561
4096
729
9
324
441
576
784
1089
1764
2601
2500
1024
0
1296
4489
6241
3969
676
4
256
441
576
784
1156
1936
2601
2304
841
1
1296
4225
5776
3721
900
0
169
324
576
900
1296
1936
2809
2601
1024
0
1369
4489
6084
4096
784
9
225
289
529
841
1296
1936
2916
2704
961
1
1369
4489
6241
4225
784
25
289
361
576
784
1089
1849
2809
2601
961
1
1600
4761
6084
3844
625
16
256
324
484
841
1225
2025
3025
2601
961
9
1764
4761
5929
3600
676
16
324
441
484
625
961
1936
3025
2704
961
4
1369
4489
6241
3969
676
9
256
361
576
900
1156
1849
2809
2401
784
16
1521
4624
6084
3721
529
25
225
361
676
841
1089
2025
3136
2401
625
36
1681
4761
5776
3136
400
25
196
324
625
961
1089
1849
2916
2500
729
36
1936
5184
6084
3025
324
49
169
256
529
841
1225
2209
3364
2500
576
81
2209
5625
6084
2809
256
64
225
324
529
900
1444
2500
3136
2025
361
144
2209
5184
5625
2500
225
49
256
400
676
1024
1521
2401
3025
1936
256
324
2809
5776
5625
2116
100
81
196
361
676
1156
1521
2500
3025
1849
225
324
2916
5929
5476
1849
64
81
256
400
784
1156
1764
2704
2809
1296
64
484
3025
5929
5041
1521
16
144
225
400
676
1024
1681
2704
2916
1296
36
784
3600
5929
4624
1156
1
196
289
441
784
1156
1764
2601
2704
1225
9
1024
4096
6241
4225
900
4
289
400
400
529
900
1681
2916
2916
1296
16
1024
4096
6241
4225
961
1
196
289
441
784
1225
1681
2601
2601
1089
4
1225
4624
6400
3969
729
4
196
256
529
841
1296
2025
2916
2601
900
1
1225
3969
5929
4096
900
4
256
361
529
676
900
1681
2916
2704
961
0
1156
3844
5476
3600
841
4
121
289
576
784
1156
1681
2704
2809
1156
1
1296
4489
6400
4356
841
4
225
361
576
900
1156
1849
2809
2500
900
0
1156
3844
5776
4096
900
0
196
324
576
961
1156
1521
2304
2401
1089
9
1089
4096
5929
3969
784
4
225
324
529
784
1024
1681
2809
2809
1225
0
1521
4624
6084
3844
676
9
256
324
529
841
1296
1764
2500
2401
1089
1
1521
4900
6400
3969
729
16
289
361
529
841
1156
1936
2916
2601
900
9
1521
4624
5776
3364
625
1
196
324
576
961
1156
1681
2500
2500
1024
0
1369
4356
5929
3844
729
9
256
361
576
841
1156
1936
2809
2601
841
16
1600
4624
5929
3600
676
4
225
361
676
1024
1225
1849
2916
2401
625
49
1936
5329
6241
3136
289
121
400
484
676
841
1156
1936
2809
2116
484
100
2209
5329
5776
2601
225
64
169
289
529
900
1296
2209
3136
2304
529
100
2304
5776
6084
2500
225
36
256
400
729
1024
1444
2500
3136
1936
256
289
2601
5625
5329
1936
121
49
169
400
784
1225
1681
2601
3025
1681
196
400
3136
6241
5625
1849
25
144
225
324
676
1089
1849
2916
3025
1521
64
625
3364
6561
5329
1600
16
169
361
529
784
1089
1764
2809
2916
1369
25
900
3844
5929
4096
841
0
100
196
324
625
961
1681
2809
3025
1369
25
961
3600
5625
3969
1024
9
100
289
529
900
1225
1764
2601
2500
961
1
961
3721
5776
4356
1089
1
169
324
529
900
1296
1936
2809
2704
1156
1
1156
4225
6241
4624
1089
0
196
324
529
900
1296
2025
2916
2809
1089
0
1296
4225
5929
4096
900
0
144
324
625
900
1156
1600
2601
2704
1156
4
1225
4096
5776
3844
784
0
169
289
529
841
1156
1764
2704
2500
900
0
1089
3844
6241
4356
961
0
225
361
529
841
1225
2025
2916
2601
961
0
1225
4225
6241
4225
961
0
196
324
576
1024
1225
1600
2401
2500
1024
1
1225
4225
6084
3969
784
4
225
361
529
900
1225
1764
2704
2704
1089
0
1521
4761
6241
3969
729
4
225
324
576
900
1296
2025
2916
2704
961
1
1369
4356
5929
3969
841
1
196
324
529
841
1225
1936
2809
2601
1024
0
1369
4489
6241
3844
729
1
169
289
576
900
1156
1849
2916
2704
961
4
1296
4225
5776
3721
841
0
121
225
441
729
1156
2500
4096
3364
1156
0
1521
5184
7225
4761
961
0
256
625
1225
1681
1444
1681
2209
1764
441
49
1521
4356
5776
3721
625
9
289
441
625
841
1296
2116
3025
2401
625
49
1849
4900
5929
3364
529
16
256
400
625
1024
1369
2304
3136
2401
576
49
2025
5184
6241
3249
400
25
256
400
625
900
1225
2209
3249
2401
484
121
2209
5041
5625
2601
256
25
169
289
576
900
1369
2401
3136
2209
441
196
2401
5476
5476
2401
196
64
256
361
625
961
1444
2304
3025
1936
324
289
2916
5929
5476
1936
81
81
289
441
729
1024
1521
2401
2809
1681
225
361
3025
6084
5329
1681
49
100
256
441
841
1225
1764
2601
2704
1296
36
676
3364
5776
4489
1296
9
100
196
400
784
1156
1521
2401
2601
1296
36
784
3600
5476
3969
961
0
144
225
484
900
1156
1600
2401
2401
1024
4
961
3600
5625
4096
961
0
225
361
484
625
841
1521
2500
2601
1225
25
841
3481
5625
4225
1024
0
196
324
529
841
961
1444
2401
2601
1089
4
1024
3721
5625
4096
961
0
196
324
441
676
1024
1600
2601
2704
1089
0
1156
3844
5476
3721
841
0
169
324
529
784
1089
1600
2601
2601
961
0
1089
3600
5476
3844
841
0
256
361
441
625
961
1681
2601
2401
1024
9
900
3600
5625
4096
1024
0
196
324
484
784
1024
1521
2304
2401
1024
4
900
3481
5184
3844
961
1
256
289
361
625
1024
1681
2500
2601
1156
4
1024
3721
5476
3844
841
0
196
324
529
784
1024
1521
2209
2209
961
4
900
3481
5184
3844
900
0
169
289
484
784
1089
1521
2209
2304
1024
9
841
3136
5041
3969
1089
4
169
289
484
729
1089
1521
2304
2401
1156
4
1089
3844
5329
3600
841
0
196
289
484
784
1024
1600
2401
2401
961
1
961
3364
5184
3721
900
1
121
256
441
729
1024
1444
2304
2401
1024
9
784
3025
5184
3969
1024
1
169
289
484
729
1024
1444
2209
2304
900
9
841
3249
5184
3969
961
0
169
289
484
676
900
1369
2304
2401
1089
36
676
3025
5041
4096
1089
4
144
289
441
729
961
1369
2116
2209
961
9
676
2809
4761
3844
1089
9
121
225
441
729
1024
1444
2116
2304
1089
16
676
3025
5184
3844
900
0
144
225
441
729
1024
1521
2209
2209
961
9
676
2916
4900
3844
961
1
121
196
361
625
961
1444
2116
2304
1089
49
484
2704
5041
4096
1225
4
169
289
441
676
961
1369
2025
2209
1089
25
625
3025
4900
3844
1024
4
144
256
441
676
961
1444
2116
2209
961
16
676
2916
4900
3844
1024
1
144
256
361
625
961
1369
2209
2304
1156
16
676
2809
4624
3844
1089
9
121
256
400
729
961
1369
2025
2116
961
16
676
2916
4624
3481
900
0
144
225
361
625
900
1444
2116
2209
1024
25
676
3025
5041
3600
841
0
144
225
441
576
784
1296
2116
2304
1089
25
625
2916
4900
3600
900
0
121
196
324
576
841
1369
2209
2401
1156
49
576
2809
4761
3844
961
4
100
169
324
625
961
1521
2304
2500
1089
25
625
2916
4761
3721
1024
9
121
256
361
529
900
1369
2304
2401
1156
25
841
3364
5184
3600
841
0
144
256
361
676
961
1369
2304
2304
961
16
576
2704
4624
3721
1024
1
144
225
324
576
784
1296
2116
2116
841
9
484
2209
3969
3481
1089
36
49
196
484
961
1225
1521
2025
1936
729
4
676
2601
4225
3721
1296
64
64
225
400
676
1024
1444
2209
2401
1156
49
576
2704
4624
3721
900
1
121
196
361
576
900
1444
2304
2304
961
9
576
2601
4624
3844
1156
16
121
196
361
676
961
1444
2209
2304
1089
36
529
2809
4900
3969
1089
9
121
225
324
576
900
1444
2304
2304
1089
25
676
2916
4761
3721
900
0
169
289
400
576
841
1296
1936
2025
961
36
484
2401
4624
3721
1156
4
289
400
289
289
576
1225
2304
2401
1089
36
576
2704
4624
3721
961
1
121
225
324
625
900
1296
2025
2304
1296
100
529
2809
5041
3721
961
1
121
196
289
576
900
1369
2116
2304
1156
25
625
2916
4900
3844
961
1
121
196
324
484
784
1369
2209
2500
1296
64
400
2500
4900
4356
1156
1
144
196
324
625
900
1444
2209
2209
900
25
576
2500
4356
3721
1156
9
100
196
361
676
961
1444
2209
2209
961
25
625
2809
4761
3600
841
0
144
196
289
529
841
1296
2116
2304
1089
49
529
2809
4900
3844
1024
1
121
225
324
625
961
1444
2209
2209
900
25
529
2401
4624
3969
1156
9
100
196
361
576
900
1521
2401
2401
1024
16
676
2916
4900
3600
900
0
144
196
324
576
900
1369
2209
2304
1024
16
625
2809
4761
3844
961
0
169
144
225
529
961
1444
2209
2401
1296
64
625
3136
5041
3844
900
1
121
169
324
625
961
1369
2209
2304
1024
36
576
2809
4761
3844
1024
1
121
196
324
576
900
1444
2116
2209
1089
49
576
2601
4761
3844
961
0
121
169
289
576
961
1444
2209
2304
1089
49
625
2809
4900
4096
1089
4
144
196
361
625
961
1600
2401
2401
1089
25
729
3249
5184
3721
900
0
121
169
289
576
961
1444
2401
2500
1156
49
625
3025
5041
3844
961
1
100
169
324
625
1024
1521
2304
2401
1089
36
576
2809
5476
4489
1089
0
196
256
400
784
1024
1444
2304
2304
1024
16
841
3249
5041
3481
729
1
144
196
289
529
841
1521
2500
2500
1024
4
900
3364
5041
3481
729
4
169
225
324
576
841
1369
2304
2304
1024
9
784
3025
4624
3600
900
0
100
144
289
625
961
1444
2304
2401
1156
49
576
3136
5329
3844
841
0
121
196
324
576
900
1444
2304
2401
1089
36
576
2809
4900
3844
900
0
100
144
256
576
900
1444
2209
2401
1156
36
576
2916
4761
3600
1024
4
100
169
289
625
961
1600
2304
2304
1089
36
625
3025
5041
3721
841
0
144
169
324
576
900
1369
2209
2209
1024
36
529
2704
5041
3969
961
0
144
169
289
625
961
1444
2116
2116
1024
25
625
2809
4624
3364
676
4
121
64
121
484
961
1521
2304
2401
1156
49
529
2704
4761
3721
961
4
100
169
289
529
841
1369
2116
2304
1225
49
529
2704
4761
3844
961
1
144
81
121
400
841
1444
2401
2500
1296
100
441
2704
4761
3721
961
4
64
100
196
484
900
1369
2209
2401
1225
64
441
2500
4356
3721
1156
25
64
144
289
576
841
1369
2209
2209
1024
36
484
2500
4489
3600
961
0
144
121
196
576
900
1296
1936
2025
1089
64
441
2500
4356
3481
900
0
121
144
225
441
784
1444
2209
2116
1024
81
484
2809
4761
3721
961
1
121
169
289
576
900
1369
2025
2209
1089
49
529
2601
4624
3600
900
1
100
121
225
529
841
1296
2116
2304
1156
64
529
2601
4624
3721
961
4
121
169
289
576
841
1369
2116
2401
1369
100
625
3136
5041
3844
841
0
121
169
289
576
841
1296
2116
2304
1225
64
625
2916
4624
3364
841
0
100
121
225
484
900
1369
2209
2304
1156
64
529
2704
4624
3600
900
0
144
169
256
484
784
1296
2025
2116
1024
36
529
2601
4489
3481
841
0
100
169
289
529
841
1296
2116
2304
1089
49
576
2916
5041
3721
900
0
169
169
289
529
841
1369
2209
2304
1225
49
529
2704
4624
3721
900
4
121
144
256
529
784
1156
2025
2304
1225
81
529
2704
4489
3721
1089
4
121
169
289
576
900
1521
2209
2209
1024
36
576
2704
4761
3721
900
1
121
144
256
529
841
1444
2209
2401
1225
49
625
2916
4900
3844
900
1
121
121
225
529
900
1444
2304
2601
1444
81
625
3136
5476
4096
1024
0
196
225
289
576
961
1444
2401
2704
1296
49
576
2916
5329
4624
1296
16
121
196
400
729
1156
1764
2500
2401
1024
4
961
3481
5329
3721
841
0
121
169
324
676
1024
1600
2500
2704
1296
25
841
3481
5625
3969
961
1
100
169
324
729
1024
1681
2601
2601
1225
25
841
3600
5625
3969
841
0
144
196
400
729
1089
1764
2809
2601
900
0
961
3249
5184
3969
1024
1
144
196
361
729
1156
1764
2601
2601
1156
16
900
3600
5776
4096
900
0
144
196
361
676
1089
1764
2704
2809
1225
9
961
3844
5776
4225
900
1
169
169
324
676
1024
1681
2704
2916
1369
36
841
3721
5776
3969
900
0
121
169
361
729
1089
1764
2704
2704
1225
9
1024
3844
5625
3844
784
1
121
169
324
676
1089
1849
2809
2704
1156
4
961
3600
5776
4096
961
1
121
196
400
784
1156
1764
2601
2601
1156
16
900
3600
5625
3844
729
1
169
169
256
576
1089
1849
2809
2704
1156
4
1089
3844
5625
4096
900
4
196
225
361
676
1089
1849
2809
2809
1089
1
1225
3969
5625
3721
729
1
144
196
361
676
1296
2025
2704
2401
900
0
1089
3969
5625
3721
729
4
169
225
441
729
1024
1600
2704
2704
1089
1
1156
3969
5476
3481
576
4
144
196
324
729
1156
1849
2704
2500
961
0
1156
3969
5625
3721
729
9
144
225
400
784
1089
1681
2601
2500
1024
1
1156
4225
5929
3721
576
25
169
196
400
784
1156
1936
2916
2500
961
1
1369
4225
5776
3600
625
9
144
196
361
729
1225
2116
3025
2601
900
1
1369
4225
5776
3600
576
36
196
121
169
576
1156
2209
3249
2809
961
0
1225
4624
6561
3844
576
16
225
256
400
784
1156
1936
3025
2704
900
9
1600
4489
5625
3364
529
9
196
256
361
576
900
1764
3025
2916
1024
0
1521
4624
5929
3481
529
16
196
225
441
784
1225
1936
2916
2601
900
16
1681
4761
5776
3249
441
9
169
256
484
900
1444
2116
2809
2304
729
9
1296
4356
6084
3844
625
4
169
289
529
841
1225
2025
3136
2601
841
16
1681
4624
5776
3136
441
9
144
256
484
900
1296
2209
3025
2500
729
16
1681
5184
6561
3481
441
16
144
289
576
1024
1444
2401
3364
2704
729
81
2209
5329
5929
2916
324
16
121
256
576
961
1444
2304
3249
2401
576
100
2209
5476
5625
2401
225
25
144
289
484
784
1296
2401
3364
2500
625
144
3025
6889
6241
2209
81
121
169
289
625
1024
1521
2601
3249
2025
225
324
2916
5929
5184
1764
64
64
144
289
625
1024
1681
2601
3025
1600
144
441
3025
5776
4900
1444
36
64
144
361
729
1225
1764
2704
3136
1600
49
961
4096
6084
4489
1024
1
121
196
400
784
1225
1849
2809
2704
1296
16
900
3844
5929
4225
900
0
144
169
324
729
1156
1764
2809
2916
1369
25
900
3969
6561
4761
961
1
225
289
441
784
1225
1764
2704
2809
1225
16
1156
4356
6400
4096
784
4
196
256
441
841
1156
1849
2809
2704
1089
0
1296
4225
6084
3844
729
1
121
225
361
625
1024
1936
3136
2916
1225
1
1225
4225
5929
3721
625
4
144
169
361
729
1156
2025
3025
2704
1024
0
1369
4356
5776
3600
676
0
100
169
400
784
1296
2025
3025
2809
1089
0
1369
4489
6084
3721
529
16
144
144
361
784
1369
2209
2916
2401
841
9
1521
4624
5776
3364
484
25
169
225
441
841
1296
2304
3364
2500
529
100
1936
4761
5476
2916
400
25
169
289
529
900
1369
2209
3136
2304
676
49
1936
5041
5776
2916
324
25
169
225
484
900
1296
2116
3249
2401
625
100
2209
5329
5476
2401
196
25
121
256
484
784
1296
2401
3481
2401
529
121
2304
5184
5476
2209
169
16
81
196
484
1024
1521
2601
3364
2209
400
196
2601
5776
5625
2304
144
81
169
144
400
961
1764
2916
3481
2116
256
324
2809
5776
5329
1764
81
64
144
289
625
1024
1521
2401
2916
1764
169
400
2916
5776
4900
1521
25
121
169
256
576
1024
1681
2809
3025
1600
81
784
3600
5929
4356
1156
4
144
225
361
729
1089
1764
2704
2809
1225
16
1024
3844
5776
3969
841
1
144
196
400
784
1225
2025
2809
2601
1024
0
1369
4356
5929
3721
676
9
196
225
361
729
1369
2401
3025
2116
625
4
1225
3844
5476
3600
625
9
169
256
400
676
1024
1849
2916
2704
1089
0
1444
4489
6084
3721
576
9
169
289
484
784
1089
1849
2916
2809
1024
9
1600
4624
5929
3481
529
16
196
256
441
784
1296
2116
3025
2704
900
16
1681
4761
5776
3364
529
9
121
225
529
841
1296
2116
3025
2601
841
9
1600
4761
5776
3364
529
16
169
256
484
961
1444
2025
2809
2401
784
4
1369
4761
6724
3844
484
36
225
289
484
841
1369
2209
3136
2500
729
64
2025
5184
5929
2916
361
25
169
289
576
841
1225
2209
3136
2401
676
64
2025
5184
5776
2809
361
16
144
256
529
961
1444
2304
3249
2500
729
64
2304
5776
6084
2704
256
25
169
256
484
900
1444
2401
3364
2500
529
144
2401
5476
5625
2401
196
36
121
289
576
961
1600
2601
3249
2209
361
256
2704
5776
5625
2116
144
49
196
324
529
900
1444
2704
3364
2116
289
324
2916
5929
5476
1849
64
81
169
289
625
1024
1600
2601
3136
1849
225
441
3364
6241
5184
1444
16
100
196
361
729
1089
1849
2809
2809
1296
36
784
3481
5776
4624
1156
4
144
196
361
784
1296
1849
2500
2401
1089
16
961
3721
5625
3969
841
1
169
196
324
625
1089
1849
2916
2916
1225
9
1156
3969
5929
4096
841
1
144
225
484
784
1024
1681
2809
2809
1225
4
1225
4356
5929
3969
784
1
169
256
441
729
1156
1849
2809
2809
1089
4
1156
4225
5929
3969
841
1
169
256
529
961
1156
1681
2601
2500
1024
0
1225
4356
5929
3721
676
9
169
225
400
729
1156
2025
3249
2704
729
36
1444
4225
5625
3364
529
16
169
256
484
841
1225
2116
3136
2601
841
9
1764
5329
6561
3364
400
36
196
289
484
841
1225
2116
3249
2704
784
25
1849
5184
6084
3136
361
16
144
256
576
961
1369
2209
2916
2209
576
81
1936
4900
5625
2916
361
16
196
324
625
961
1444
2401
3364
2401
529
121
2209
5476
5776
2601
256
25
169
225
441
841
1444
2601
3481
2401
484
169
2304
5329
5625
2401
196
16
100
196
576
1024
1681
2704
3249
2116
324
256
2704
5625
5329
1849
100
25
144
289
676
1156
1764
2704
3025
1681
144
441
3025
5776
4761
1444
49
36
121
324
784
1225
1849
2809
2916
1369
49
729
3600
5776
4489
1024
1
100
144
324
729
1156
1849
2704
2704
1296
25
961
3969
5929
4225
900
0
144
225
441
784
1225
1764
2601
2601
1156
9
1024
3844
5929
4096
900
1
169
225
400
729
1156
1849
2916
2704
1089
9
1089
4096
6084
4356
900
0
169
225
400
784
1156
1849
2916
2809
1156
4
1089
4096
5776
3844
841
0
144
196
400
841
1296
1849
2500
2500
1024
1
1225
4225
5929
3844
729
4
169
256
441
729
1156
1936
2916
2809
1089
0
1296
4356
5929
3844
676
4
169
196
400
784
1225
1936
2916
2704
1024
0
1444
4489
5625
3481
625
1
121
225
484
841
1089
1681
2809
2704
1024
0
1444
4489
5929
3481
484
16
196
225
441
729
1089
2025
3136
2601
841
9
1600
4624
5929
3364
529
16
169
225
484
784
1296
2209
3136
2704
900
16
1600
4624
5929
3600
625
1
121
256
529
961
1444
2209
3136
2601
729
36
1849
4900
5776
3025
324
36
121
121
361
784
1444
2401
3364
2601
676
64
2025
5329
6084
2916
289
49
196
256
441
729
1296
2401
3481
2704
676
81
2116
5329
6084
2916
324
16
121
256
576
1024
1521
2601
3364
2500
576
169
2601
5476
5329
2401
289
4
100
289
676
1089
1444
2401
3364
2304
400
196
2500
5476
5329
2116
144
36
144
289
625
1024
1600
2601
3136
1849
196
400
2916
5929
5184
1600
49
64
196
324
576
961
1600
2704
3136
1764
169
441
3025
5776
5041
1521
49
49
121
361
784
1156
1681
2601
3025
1521
64
729
3481
5776
4624
1156
4
121
225
361
676
1089
1681
2704
2916
1369
36
841
3600
5776
4096
961
1
100
169
361
729
1089
1849
2916
2916
1089
0
1089
3844
5776
4096
900
1
144
225
400
729
1156
1849
2704
2704
1225
16
1024
4225
6400
4225
784
4
196
225
361
784
1296
2025
2916
2601
961
0
1156
3969
5929
4096
784
4
225
289
400
625
1024
1849
2916
2809
1156
4
1156
4225
6084
4096
841
1
169
256
400
784
1225
1936
2916
2809
1089
0
1369
4624
6400
3969
676
9
196
256
576
1024
1024
1444
2500
2601
1089
0
1369
4356
5776
3364
529
16
196
256
484
784
1156
1936
2916
2500
841
9
1600
4624
5929
3364
484
25
144
225
441
784
1225
2025
3136
2704
841
9
1600
4761
5929
3249
361
36
100
100
361
784
1296
2304
3364
2704
784
25
1849
4900
5625
3025
400
9
144
225
441
729
1225
2304
3481
2704
729
64
1936
5041
5776
2916
400
9
144
225
484
841
1369
2401
3364
2704
784
49
1936
5041
5625
2916
400
1
100
225
529
900
1296
2304
3364
2704
676
81
2116
5329
5776
2809
289
25
144
225
484
841
1296
2401
3600
2704
576
121
2304
5329
5776
2704
256
25
144
256
576
961
1521
2601
3481
2209
324
196
2401
5329
5625
2304
169
49
144
289
576
1024
1600
2704
3249
1849
225
324
2809
5776
5329
1764
64
64
100
225
576
1089
1764
2916
3364
1936
144
576
3249
5929
4900
1444
36
81
169
324
729
1089
1521
2401
2916
1600
121
529
3025
5476
4624
1369
36
49
121
324
676
1225
1936
2916
3025
1369
25
961
3844
5929
4356
961
0
144
225
400
784
1089
1600
2601
2809
1225
36
900
3969
6241
4225
961
0
144
225
441
841
1296
1849
2809
2809
1089
1
1089
3844
5929
4096
784
1
144
196
400
784
1156
1849
2809
2809
1156
1
1156
4096
5776
3844
784
1
121
196
361
841
1296
2025
2809
2601
1024
1
1156
4356
6084
3721
529
25
81
25
169
676
1369
2304
3481
3025
1225
1
1296
4356
5929
3969
841
0
121
196
441
841
1225
1936
2916
2809
1156
0
1296
4356
6084
3721
625
1
64
100
289
784
1225
2025
3136
2916
1225
1
1225
4096
5929
3844
676
9
169
289
441
529
784
1600
2916
2916
1296
4
1156
4096
5929
3844
729
4
196
256
361
576
900
1764
2916
2809
1225
4
1156
4096
6084
4096
841
0
169
225
400
841
1156
1849
2704
2601
1089
0
1225
4225
5929
3844
625
9
144
169
361
676
1156
1936
3136
3025
1089
0
1296
4225
6084
3844
729
9
169
289
529
841
1024
1681
2704
2601
1024
0
1296
4356
5776
3721
625
9
196
225
361
676
1156
2025
3136
2704
900
4
1521
4489
5776
3600
576
16
169
256
441
784
1156
1936
2916
2601
1024
0
1600
5184
6241
3481
441
36
196
256
529
841
1225
2209
3136
2601
841
25
1681
4761
6084
3481
529
9
196
289
529
841
1156
2116
3249
2601
676
49
1849
4761
5476
2916
441
1
100
256
529
961
1369
2304
3136
2704
841
25
1764
5329
6724
3481
484
16
169
256
576
961
1444
2401
3364
2601
676
36
1764
4900
6400
3600
529
9
169
256
529
900
1369
2401
3364
2601
729
49
1936
5041
5929
3136
441
4
121
256
529
961
1369
2304
3249
2500
729
49
2025
5184
5625
2809
361
4
144
256
441
784
1296
2401
3600
2704
625
100
2209
5184
5625
2704
289
16
144
256
576
961
1444
2304
3249
2401
484
144
2304
5329
5625
2500
225
25
121
256
529
1024
1521
2601
3249
2209
400
196
2704
5929
5625
2116
121
64
196
324
625
961
1369
2304
3025
1936
225
324
2809
5625
5041
1600
36
81
169
289
676
1156
1764
2601
2809
1369
64
625
3249
5625
4489
1156
25
36
144
400
784
1156
1849
2916
2809
1225
36
784
3481
5776
4225
1089
1
144
196
361
625
1089
1849
2916
2809
1156
4
1024
3844
5625
3969
900
0
121
196
441
900
1369
1849
2209
2116
961
16
841
3364
5476
3969
841
1
144
196
361
676
1089
1764
2809
2809
1156
1
1089
3969
5929
3969
841
0
144
225
400
784
1156
1849
2809
2809
1225
25
1024
4356
6561
4225
784
1
196
256
400
676
1024
1764
2809
2809
1296
9
1156
4225
5929
3969
784
1
121
144
289
625
1024
2116
3364
3481
1600
36
1024
4225
6400
4489
1024
4
81
196
484
784
1089
1764
2916
2704
1089
0
1444
4489
5929
3600
625
4
81
100
361
900
1369
2116
3136
2916
1225
1
1225
4489
6241
3844
676
9
196
169
256
625
1156
2025
3136
2916
1156
0
1521
4761
6084
3600
529
16
169
225
484
784
1024
1764
2809
2704
1024
1
1521
4761
5929
3249
484
9
169
225
484
784
1156
2116
3025
2601
841
16
1764
5041
6084
3025
400
25
196
256
484
784
1225
2209
3249
2704
841
25
2116
5476
6241
3136
361
16
144
289
625
961
1521
2401
3136
2304
576
64
1936
5041
5776
2704
289
16
144
256
529
729
1089
2116
3481
2704
676
144
2401
5476
5625
2401
196
36
100
196
529
961
1521
2601
3481
2401
484
225
2704
5776
5476
2025
144
25
100
256
676
1089
1521
2500
3136
1936
324
289
3025
6241
5476
1681
49
81
169
324
625
1024
1600
2704
3136
1764
169
484
3249
6084
5041
1600
25
121
256
361
625
900
1600
2704
3025
1444
64
729
3600
6084
4624
1089
0
169
169
225
484
1089
1936
3025
3025
1444
36
900
3721
5776
4225
961
0
121
144
256
625
1089
1936
2916
3025
1369
16
961
3969
6084
4225
900
1
169
225
400
676
1089
1849
2809
2704
1089
4
1089
3844
5776
3969
841
1
169
225
484
841
961
1521
2601
2916
1369
36
1024
4489
6561
4225
841
4
169
225
400
729
1156
1849
2916
2809
1156
1
1225
4225
5776
3844
841
0
121
225
400
841
1225
1936
2916
2704
1089
0
1296
4356
5929
3844
729
1
144
225
441
841
1369
2116
2704
2209
841
0
1225
3844
5625
3844
841
0
144
256
484
841
1225
2116
3025
2809
1024
1
1444
4489
5929
3721
625
4
144
196
400
784
1156
2025
3136
2809
961
1
1296
4096
5776
3844
784
0
144
256
400
841
1225
1849
2916
2601
1024
0
1296
4356
5929
3721
729
4
169
225
361
729
1156
2025
3136
2916
1089
0
1444
4489
5776
3721
841
0
144
289
484
841
1156
2025
3136
2916
1089
0
1369
4489
6084
3600
576
1
81
144
361
729
1225
2025
3136
2809
1089
0
1369
4489
5929
3600
625
4
169
289
484
625
841
1600
2916
2916
1225
1
1296
4225
5929
3721
625
9
144
144
324
729
1225
2025
3136
2704
1024
0
1444
4489
5776
3600
729
4
169
225
484
841
1225
2116
3025
2500
841
1
1296
4225
5776
3721
676
4
169
225
441
841
1225
2025
3025
2809
961
0
1225
3969
5929
4356
900
0
169
256
441
784
1225
2025
3025
2704
1024
0
1444
4624
5929
3721
625
9
169
225
484
784
1089
1849
2916
2704
961
1
1369
4356
5776
3600
625
9
196
225
400
729
1156
1936
2916
2704
1024
0
1369
4356
6084
3844
625
16
169
121
289
729
1369
2304
3136
2704
961
1
1444
4489
5776
3364
529
9
121
169
400
729
1156
2025
3025
2809
1024
4
1681
4761
5776
3364
484
25
169
169
361
784
1296
2209
3249
2601
841
25
1681
4761
5625
3249
529
4
121
225
484
961
1444
2304
3364
2601
676
81
2116
5041
5776
3025
361
16
169
225
484
841
1296
2209
3249
2601
729
49
1936
5041
5625
2704
361
16
100
121
289
729
1369
2704
3844
3025
841
49
2116
5476
5929
2704
256
9
81
196
484
841
1296
2304
3364
2500
625
100
2209
5625
5776
2500
225
16
121
225
576
1024
1521
2601
3481
2304
441
196
2500
5625
5776
2304
169
49
144
256
529
961
1600
2704
3364
2025
324
256
2601
5625
5476
1936
81
49
121
225
484
961
1681
2601
2916
1849
289
256
2704
5776
5329
1764
81
64
144
289
676
1156
1764
2704
2916
1600
100
576
3249
6084
4900
1296
9
64
144
324
729
1089
1681
2704
3025
1600
100
625
3481
6084
4624
1156
4
121
196
324
625
961
1600
2809
3136
1600
81
729
3721
6084
4624
1024
0
144
169
289
529
1024
1764
2916
2916
1296
16
1024
3969
5929
3969
841
1
144
196
361
729
1156
1936
3025
2601
1024
0
1225
4096
5776
3844
676
4
169
196
400
729
1156
1936
2809
2500
961
0
1156
3969
5776
3844
729
4
196
225
441
784
1156
1936
3025
2809
1024
4
1444
4489
5929
3721
625
4
144
225
400
784
1296
2116
3025
2500
841
1
1225
4096
5776
3844
729
1
144
225
400
784
1225
2025
3025
2704
1089
1
1156
4096
5929
4096
961
0
144
256
484
841
1156
2025
3025
2809
1089
0
1296
4356
6084
3844
676
9
196
169
324
676
1156
1936
3025
2916
1089
0
1296
4489
5929
3721
676
9
144
225
441
784
1225
2025
3136
2704
900
0
1225
4225
6241
4096
784
4
225
289
441
729
1089
2025
3025
2601
961
0
1156
4096
5929
3969
729
9
225
289
400
676
1089
1936
2809
2601
1024
0
1521
4900
6241
3721
529
16
225
289
484
841
1225
2116
3025
2704
900
9
1600
4761
6084
3721
625
4
169
225
441
841
1225
2025
3136
2704
961
1
1296
4356
6084
3844
625
9
196
289
441
784
1225
2116
3025
2601
784
9
1521
4356
5776
3600
676
9
144
256
441
784
1225
2025
3025
2704
961
4
1600
4489
5929
3600
576
16
169
256
441
841
1225
2025
2916
2704
961
9
1600
4761
6084
3600
576
16
196
256
484
841
1225
2025
2916
2401
841
9
1521
4489
5776
3481
484
25
196
196
361
676
1296
2116
3025
2601
900
1
1600
5041
6241
3364
441
25
196
256
441
784
1296
2209
3136
2704
900
25
1764
4900
5776
3025
400
4
49
121
400
900
1296
2209
3249
2704
900
9
1600
4761
5929
3249
441
25
196
196
400
784
1225
2025
3025
2601
900
16
1764
5041
6241
3364
400
36
169
289
576
784
1024
1849
3136
2704
841
36
1849
5041
5929
2916
361
25
169
225
484
841
1296
2304
3249
2500
729
49
1936
5184
6084
2916
324
25
144
256
529
841
1225
2209
3364
2500
529
100
2025
4900
5776
2809
324
16
144
289
625
1024
1600
2601
3364
2025
361
256
2809
6084
5625
2025
81
64
144
289
625
1089
1681
2601
3025
1849
256
324
2704
5476
5329
2025
121
49
169
361
729
1089
1764
2809
3136
1681
100
625
3249
5776
4761
1369
25
81
169
361
729
1089
1764
2809
2916
1296
36
784
3600
5776
4356
1024
0
121
196
400
729
1156
1764
2601
2601
1156
16
961
3969
6084
4096
841
1
169
225
361
784
1156
1849
2809
2809
1156
9
1089
4225
6241
4096
784
4
196
196
324
729
1156
1936
2916
2916
1156
0
1369
4225
5776
3600
729
1
169
196
324
676
1089
1936
3025
2916
1156
4
1225
4356
6084
3969
729
4
169
225
400
676
1089
1936
3136
2916
1156
1
1444
4900
6561
3969
676
9
196
256
441
784
1225
2116
2916
2704
1024
1
1369
4356
5776
3600
625
4
144
196
400
729
1156
1936
2916
2704
1024
1
1369
4356
5776
3600
625
9
169
225
441
784
1089
1936
3025
2601
961
1
1444
4489
5929
3721
625
9
169
225
400
784
1156
1849
3025
2704
1024
0
1444
4761
6084
3364
441
9
100
144
361
841
1369
2209
3136
2809
1089
1
1681
5041
6241
3481
529
25
225
289
361
576
1024
2116
3249
2704
900
4
1600
4761
5929
3249
441
16
169
196
441
784
1296
2304
3136
2401
729
36
1849
5041
5776
2916
400
25
169
289
484
841
1296
2209
3136
2601
676
49
1936
5184
5776
2809
324
16
144
256
625
1024
1369
2025
2704
2116
529
81
2025
5184
5625
2500
256
25
169
256
576
961
1444
2401
3249
2304
484
144
2304
5476
5776
2601
256
25
144
289
625
1024
1600
2601
3249
2025
361
256
2704
5776
5329
2025
121
49
121
324
625
1089
1764
2601
2916
1681
196
400
2916
5776
5184
1521
36
81
169
324
625
1024
1681
2704
3025
1521
81
625
3249
5776
4624
1225
9
100
169
324
676
1089
1764
2704
3025
1444
36
900
3721
5776
4225
1024
0
121
169
324
676
1089
1764
2916
2809
1225
16
1089
4096
5776
3844
729
4
144
196
361
676
1156
1936
3025
3025
1156
1
1521
4624
6084
3844
625
16
196
256
441
784
1225
2025
3136
2809
961
9
1600
4624
5929
3600
576
4
144
196
400
784
1225
2116
3025
2500
961
0
1156
4096
5776
3600
676
4
121
196
441
784
1089
1764
2809
2704
1024
0
1296
4225
6084
3844
676
9
169
256
441
784
1225
2025
2916
2704
961
0
1369
4489
6241
3844
676
9
169
256
441
729
1156
1936
2916
2809
1089
0
1444
4489
5929
3481
576
9
144
169
361
729
1225
2025
2916
2601
961
1
1369
4356
5776
3600
625
9
169
196
324
729
1156
2025
3025
2704
961
0
1296
4356
5776
3721
676
9
144
196
400
784
1156
1936
2916
2809
1089
1
1296
4225
5929
3844
676
9
169
169
324
676
1156
2116
3025
2809
1024
1
1521
4489
6084
3721
625
9
196
256
441
841
1225
1936
2916
2601
961
1
1296
4356
5776
3600
676
9
196
225
361
676
1156
1936
2916
2809
1024
1
1444
4489
5929
3364
441
25
100
81
289
729
1369
2209
3136
2916
1024
4
1681
4761
6084
3481
529
16
169
256
441
784
1296
2209
3136
2601
784
16
1681
4900
6084
3364
484
16
196
289
441
729
1156
2116
3364
2809
900
25
1764
5041
5929
3025
400
9
100
169
441
900
1444
2601
3364
2209
529
49
1764
4761
5776
3025
324
25
169
225
484
841
1296
2209
3136
2500
625
81
2116
5329
5776
2809
289
25
169
256
529
900
1369
2500
3364
2500
484
169
2304
5329
5625
2500
196
16
121
256
576
1024
1521
2500
3481
2304
324
256
2601
5476
5476
2209
169
36
121
289
576
961
1600
2704
3249
2025
289
324
2809
5776
5329
1849
81
64
144
256
576
1089
1764
2704
2916
1681
169
324
2809
5776
5184
1600
25
100
169
324
676
1089
1681
2704
2916
1444
49
784
3600
5776
4356
1089
1
100
144
289
676
1156
1936
2809
2809
1225
25
900
3721
5776
4096
900
1
169
225
361
625
961
1681
2809
2916
1369
16
961
3844
5929
3969
900
0
121
196
361
729
1156
1764
2809
2916
1225
16
961
3721
5776
4096
961
0
144
225
324
625
1089
1936
3136
3025
1156
1
1156
4096
5929
3969
841
0
144
225
400
784
1156
1936
2916
2916
1225
4
1089
4096
6084
4096
900
0
144
169
289
676
1156
1849
2916
2704
1225
16
1024
3969
5929
4096
784
1
196
256
400
729
1089
1849
2704
2601
1024
0
1225
3844
5776
3969
784
1
196
225
400
729
1156
1936
3025
2809
1024
0
1444
4900
6400
3721
576
25
196
289
484
841
1225
2116
3136
2704
841
16
1681
4761
6084
3481
576
4
121
225
484
900
1296
2116
3025
2601
841
16
1681
4761
5929
3364
484
16
144
225
441
841
1296
2209
3364
2601
729
49
1936
5041
5625
2916
441
1
100
225
484
961
1444
2401
3364
2601
784
4
1681
5476
6889
3364
361
25
196
289
529
900
1369
2304
3136
2500
729
49
2025
5184
5929
2916
324
25
169
225
529
841
1296
2304
3364
2809
676
169
2704
5776
5776
2401
169
25
121
225
529
1024
1521
2601
3364
2304
441
196
2500
5776
5625
2209
144
36
144
289
576
961
1444
2500
3249
2116
324
289
2916
5929
5625
1936
81
64
169
324
576
1024
1521
2601
3136
1936
289
289
3136
6724
5776
1681
16
121
196
289
625
1089
1681
2704
3025
1521
81
676
3364
5776
4624
1225
1
121
144
256
625
1089
1849
2916
2916
1369
49
841
3721
5929
4356
961
0
144
196
324
676
1225
1936
2916
2500
1024
9
841
3600
5476
4096
961
0
196
324
400
529
841
1444
2704
3249
1600
25
1024
3969
6084
4356
900
0
169
225
441
900
1156
1444
2209
2304
961
9
784
3481
5476
3969
841
0
100
169
361
729
1156
1849
2809
2704
1296
36
784
3600
5776
4356
1024
1
144
196
361
676
1089
1764
2809
2809
1225
9
1024
3721
5776
3969
1024
9
100
225
441
900
1369
1936
2809
2601
1089
1
1225
4225
6084
3844
729
0
121
196
441
841
1225
2025
3025
2704
1089
1
1296
4624
6084
3721
729
4
196
256
441
841
1225
1936
3136
2809
900
9
1444
4225
5776
3600
625
9
144
169
361
676
1156
1849
2916
2704
1089
0
1369
4624
6241
3721
576
36
289
324
361
576
1024
2025
3364
3025
1024
25
1936
5184
6084
3249
441
16
169
256
484
841
1296
2209
3249
2809
784
64
1936
5041
5776
2916
324
25
144
225
484
900
1225
2025
3025
2500
676
64
1936
4900
5476
2916
361
16
196
289
484
729
1156
2304
3481
2809
729
100
2304
5625
5929
2601
225
36
169
256
529
961
1521
2401
3136
2209
441
169
2401
5625
5625
2304
169
25
100
225
529
1024
1600
2601
3364
2209
361
289
2704
5776
5329
1849
100
49
196
289
484
841
1521
2601
3136
1849
225
400
2916
5776
5041
1521
25
81
169
324
676
1089
1681
2704
2916
1369
36
841
3600
5776
4356
1156
1
121
196
361
676
1089
1764
2809
2809
1369
36
841
3600
5929
4225
961
0
169
196
400
729
1024
1600
2601
2809
1225
25
900
3844
5929
4225
961
0
144
225
400
900
1296
1764
2500
2401
1089
9
961
3844
6084
4356
900
4
196
196
361
729
1156
1936
2916
2809
1225
9
1024
3844
5776
4096
900
0
121
169
361
729
1225
2025
3249
2916
1089
0
1225
3969
5929
4096
900
1
169
225
441
784
1225
1936
2809
2809
1156
16
1024
4356
6561
4225
625
81
289
49
64
400
1024
2116
3364
3249
1369
9
1156
4225
5929
3844
729
9
121
144
324
841
1444
1936
2500
2401
1089
9
900
3844
6241
4356
841
0
121
169
324
729
1225
2209
3481
3481
1225
16
1849
4624
5929
3600
576
16
225
324
576
729
961
1681
2704
2500
1024
0
1444
4624
5929
3600
576
9
169
225
441
784
1089
1936
3136
2704
961
4
1444
4624
6241
3844
676
16
196
256
484
784
1156
2025
3136
3136
1296
4
2025
5776
6561
3364
441
36
196
289
529
841
1225
2116
3136
2601
841
16
1936
5041
5476
3136
576
0
121
256
576
1089
1225
1936
3025
2704
900
25
2025
5329
6084
3025
400
25
144
256
529
900
1369
2401
3481
2601
625
81
2025
5184
5776
2809
324
25
144
196
484
841
1369
2500
3481
2704
625
144
2304
5476
5625
2704
256
25
169
324
576
900
1521
2601
3136
1849
324
196
2304
5184
5184
2116
144
36
121
256
576
961
1444
2401
3136
1936
324
225
2401
5625
5476
1936
100
16
64
256
676
1156
1764
2916
3481
2116
256
484
3364
6400
5329
1600
25
100
196
361
729
1225
1936
2809
2809
1296
49
729
3481
5776
4624
1225
9
121
196
324
676
1089
1764
2809
3025
1600
64
961
3969
6084
4489
1024
0
169
289
400
529
900
1681
2809
2916
1444
64
784
3481
5929
4489
1225
1
144
225
400
729
1156
1849
2809
2916
1225
16
1089
4225
6400
4356
841
4
169
289
441
784
1296
2025
2601
2209
900
0
1089
3844
5625
3844
784
4
169
225
400
784
1156
1681
2704
2809
1225
1
1296
4096
5776
3844
729
1
144
225
400
729
1156
1936
3025
2704
961
1
1156
3969
5625
3600
676
0
121
289
484
576
625
1369
2809
3136
1521
25
1024
4096
5929
4096
784
1
144
196
361
729
1225
1936
2809
2704
1225
4
1225
4225
6241
4489
1024
0
196
324
484
841
1225
2025
3136
2704
841
9
1369
4225
5625
3364
576
9
144
169
361
729
1089
1936
2916
2809
1024
0
1225
4356
5929
3844
625
36
256
169
256
576
1156
2209
3249
2704
961
4
1444
4225
6084
3969
784
4
196
289
484
841
1225
2209
3481
2500
576
36
1600
4356
5625
3364
529
9
144
196
361
784
1225
2025
3136
2704
961
4
1521
4624
5776
3364
529
4
100
196
441
900
1369
2209
3025
2601
841
9
1521
4624
5929
3481
529
36
225
256
484
784
1024
1600
2704
2601
961
1
1296
4225
5929
3600
625
9
169
289
625
841
841
1444
2704
2809
1089
0
1296
4356
5776
3600
625
9
196
225
400
676
1156
1936
3025
2916
1089
4
1681
4900
5929
3249
484
9
100
144
400
784
1296
2116
3249
2809
1089
0
1521
4900
6400
3600
484
25
144
225
441
841
1225
2116
3136
2809
1024
36
2304
5776
6084
2916
289
49
196
289
529
900
1369
2401
3136
2304
529
81
2116
5184
5776
2704
289
25
169
225
441
784
1369
2500
3481
2704
729
121
2500
5625
5625
2500
225
36
144
256
529
841
1369
2401
3249
2304
484
169
2304
5329
5476
2401
196
25
81
225
676
1089
1521
2304
3249
2401
361
361
2916
5476
5041
1849
144
25
169
324
576
961
1681
2916
3721
1936
169
484
3025
5929
5184
1521
9
81
25
64
400
1089
1849
3025
3600
2116
256
361
3025
6084
5329
1681
49
64
169
324
676
1089
1600
2601
3025
1849
144
625
3364
6084
4900
1444
16
100
196
400
729
1156
1849
2809
3025
1444
49
784
3481
6084
4761
1089
4
81
144
324
841
1225
1764
2809
2809
1296
25
900
3600
5625
3844
729
4
81
49
169
625
1156
1849
2809
3025
1521
81
676
3481
5776
4624
1225
9
121
196
400
784
1156
1849
3025
3136
1296
9
1156
4489
6889
4489
784
9
169
169
289
729
1225
2025
3025
2916
1296
16
1024
3969
6084
3969
841
0
121
196
361
676
1089
1936
2916
2809
1156
4
1156
4225
6084
3969
729
4
169
196
400
784
1156
1764
2809
2809
1156
4
1156
4356
5929
3844
676
9
144
196
324
576
1024
1936
3025
2916
1225
16
1369
4761
6400
3844
676
9
196
324
484
841
1156
1936
2916
2601
900
4
1444
4356
5776
3721
676
1
144
225
400
784
1296
2209
3025
2500
841
1
1444
4489
6084
3721
576
16
169
225
400
841
1296
2025
2916
2601
900
4
1444
4489
5776
3481
576
25
256
324
361
576
961
1936
3249
2916
961
0
1444
4489
5776
3481
576
4
144
225
441
729
1156
1849
2809
2601
1024
0
1296
4489
5929
3600
576
16
196
169
324
729
1156
2209
3249
2601
841
9
1600
4624
5776
3249
529
9
144
225
441
784
1225
2116
3136
2500
784
4
1444
4356
5625
3249
625
1
64
169
484
961
1369
2116
3136
2704
1024
0
1296
4489
6084
3844
676
9
169
256
441
784
1225
2025
3025
2601
900
1
1521
4624
6084
3721
576
36
324
225
225
529
1089
2025
3136
2704
961
1
1369
4356
5929
3481
625
9
144
196
441
784
1225
2116
3136
2916
1024
9
1681
4624
5625
3364
576
4
144
196
441
784
1089
2025
3136
2500
841
16
1600
4489
5625
3025
441
16
144
225
484
841
1225
2209
3025
2500
784
16
1936
5476
6561
3364
361
36
196
289
576
961
1369
2304
3249
2601
625
81
2209
5329
5625
2704
324
16
121
256
576
961
1521
2401
3249
2304
529
144
2209
5329
5625
2500
225
25
81
169
484
961
1444
2601
3481
2601
625
121
2401
5625
5929
2500
225
25
100
289
625
900
1296
2304
3249
2304
441
169
2209
5329
5476
2304
169
25
121
289
625
1024
1521
2601
3249
1936
289
361
2916
5625
4900
1849
121
36
144
324
729
1225
1849
2809
3136
1521
81
676
3364
5776
4489
1225
4
81
121
289
676
1089
1681
2704
2916
1444
121
576
3481
6084
4761
1156
1
121
196
361
729
1156
1849
2704
2809
1225
25
961
3721
6084
4761
1156
0
169
256
484
841
1225
2025
3136
2809
1024
0
1296
3969
5476
3844
900
1
121
225
441
784
1225
2025
3025
2809
1156
0
1369
4489
5929
3600
576
4
121
169
361
784
1156
2025
3025
2704
1089
1
1369
4356
6084
3721
625
9
144
196
361
841
1296
2116
3025
2500
900
1
1369
4356
5929
3721
676
16
225
361
529
676
900
1600
2916
2704
1024
0
1369
4356
5776
3481
576
9
144
196
441
784
1225
2116
2916
2500
841
4
1444
4356
5625
3481
625
4
144
256
484
841
1089
1849
2916
2601
841
1
1296
4096
5776
3481
625
1
121
196
400
784
1156
2025
3136
2809
1024
1
1444
4489
6084
3600
576
9
169
225
484
784
1225
2025
3249
3136
1024
49
2116
5184
5929
3136
400
25
196
289
529
900
1296
2304
3136
2401
676
36
1764
4900
5625
2916
484
1
121
225
441
784
1296
2304
3249
2601
784
36
1849
4900
5625
2916
400
4
121
225
441
841
1296
2304
3249
2500
676
49
1936
5041
5776
2809
324
16
169
289
576
841
1089
1936
3136
2601
676
64
2116
5041
5625
2704
289
25
144
256
484
961
1521
2304
3025
2116
484
121
2116
5184
5476
2401
225
25
121
225
529
961
1444
2601
3364
2209
400
169
2401
5776
5625
2116
121
49
144
256
576
1089
1600
2401
2601
1681
256
324
2809
5776
5041
1600
36
81
169
361
784
961
1369
2401
3025
1764
169
484
2809
5625
5041
1849
64
81
196
400
729
1156
1681
2704
2916
1444
81
625
3136
5625
4761
1444
16
121
196
361
729
1089
1764
2809
2916
1296
16
961
3721
5776
4225
900
0
144
144
324
625
1156
2116
3025
2601
1089
9
961
3844
5776
4225
841
0
144
196
361
625
1024
1764
2916
2809
1296
25
900
3721
5776
4225
900
1
169
256
400
729
1089
1600
2500
2601
1225
9
961
3844
5776
4225
961
0
144
196
361
676
1089
1764
2916
3025
1369
16
1089
3969
5776
4096
961
0
169
324
484
625
784
1369
2601
2916
1444
36
900
3721
5929
4096
900
0
100
144
324
729
1156
1849
2809
2916
1225
9
1089
3844
5929
4225
961
0
144
225
400
729
1089
1764
2704
2809
1225
4
1156
3969
5476
3844
961
1
100
225
441
784
1156
1849
2916
2809
1156
9
1156
4624
6400
3969
729
9
196
256
400
729
1156
1936
2916
2704
1024
0
1296
4096
5625
3844
841
0
121
225
441
841
1225
2025
3025
2704
1089
1
1296
4489
6241
3721
676
9
196
196
324
729
1225
2116
3249
2704
841
4
1444
4356
5929
3721
576
25
196
169
324
729
1225
2116
3025
2809
1024
4
1521
4489
5929
3481
576
9
196
256
441
676
1024
1849
3025
2704
961
1
1369
4356
5776
3481
576
9
169
196
400
729
1225
1936
2916
2601
961
1
1296
4096
5476
3721
784
0
121
256
529
961
1296
1681
2500
2401
1024
0
1296
4356
5776
3600
576
9
169
225
441
784
1156
2025
2916
2601
961
1
1600
4761
5929
3481
529
16
169
256
400
784
1225
2025
3025
2601
900
4
1521
4489
5776
3481
529
9
169
196
361
729
1225
2116
3136
2601
900
1
1521
4624
5929
3481
576
16
196
225
441
784
1296
2025
2704
2209
784
9
1521
4356
5625
3249
441
16
169
225
441
784
1369
2304
2916
2304
676
25
1764
4761
5776
3025
400
16
144
256
484
900
1369
2401
3364
2500
529
100
2116
5041
5625
2704
289
25
144
196
484
961
1521
2601
3249
2116
484
121
2304
5184
5476
2401
225
25
121
256
576
961
1521
2304
3136
2116
441
169
2401
5476
5625
2304
169
64
169
256
484
900
1444
2401
3025
2025
361
144
2209
5625
5929
2401
169
49
169
324
676
1089
1681
2704
3136
1764
169
400
2809
5776
4900
1600
49
64
144
361
625
900
1600
2809
3136
1600
121
529
3136
5625
4624
1369
16
81
121
225
625
1156
1849
2809
3025
1369
36
841
3600
5929
4356
1089
1
121
196
361
729
1156
1849
2916
2809
1225
9
1024
3969
5929
4096
900
0
144
225
400
784
1156
1849
2809
2809
1156
4
1089
3969
5776
4225
961
0
169
256
441
841
1156
1681
2601
2601
1156
4
1156
4096
5929
3844
625
9
144
169
400
729
1089
1849
2916
2916
1225
0
1444
4489
5929
3721
729
9
169
256
441
784
1225
1936
2809
2601
900
1
1296
4096
5625
3721
729
1
144
225
361
784
1156
1936
2916
2809
1024
0
1296
4225
5929
3844
676
4
169
196
400
729
1156
1849
2916
2704
1024
0
1296
4356
5625
3721
729
1
169
225
361
841
1225
1849
2704
2601
1024
0
1296
4356
5929
3600
529
16
225
256
361
676
1089
2116
3136
2704
900
9
1681
4624
5929
3364
529
16
169
196
361
625
1156
2116
3249
2601
841
16
1681
4624
5776
2916
361
16
100
196
529
841
1156
1849
2809
2500
784
25
1681
4900
5776
2809
324
25
196
324
484
676
1024
2025
3136
2500
676
64
2025
5184
5625
2601
289
25
144
256
484
900
1369
2209
3136
2304
529
121
2209
5329
5625
2401
196
25
121
289
625
1024
1521
2304
2704
1936
361
169
2401
5329
5329
1936
100
36
121
256
576
1024
1600
2601
3136
1849
196
441
3025
5776
5041
1600
36
81
169
289
576
961
1681
2704
3025
1681
169
441
2916
5929
5476
1849
49
100
256
484
841
1225
1849
2704
2809
1225
16
961
3844
5929
4096
900
0
144
196
361
784
1156
1764
2704
2704
1156
9
961
3844
5776
3969
841
0
169
256
361
676
1089
1764
2809
2809
1225
25
961
3844
5929
4096
784
16
169
100
225
625
1225
1936
2809
2704
1156
9
1156
3969
5776
3844
729
9
144
196
400
784
1089
1681
2601
2601
1089
1
1225
4096
5625
3600
676
4
169
196
400
729
1156
1849
3025
2704
900
1
1225
4096
5776
3600
625
4
144
196
400
729
961
1600
2704
2704
1156
9
1089
4096
5929
3844
676
9
196
225
400
729
1089
1849
2809
2601
1024
0
1296
4225
6084
3844
729
9
169
256
400
729
1156
1936
3025
2704
1024
0
1369
4356
5776
3844
729
4
196
256
441
841
1296
1936
2916
2704
961
9
1369
4096
5625
3600
676
4
196
225
400
676
1089
1936
3025
2809
1024
0
1296
4225
5929
3844
676
4
169
196
400
729
1156
1849
2916
2704
1024
0
1225
4356
6241
3969
676
16
196
289
484
784
1156
2025
3025
2704
961
4
1600
4761
5776
3364
676
0
121
225
441
841
1296
2116
3025
2704
1024
1
1444
4489
5929
3600
576
9
144
196
441
900
1296
2025
2809
2500
900
1
1369
4356
5929
3600
576
16
169
256
484
784
1024
1936
3136
2809
900
9
1600
4624
5776
3364
484
9
169
361
625
625
729
1521
2916
2704
1024
0
1444
4489
5776
3249
484
9
144
196
400
784
1156
2025
3025
2500
841
9
1521
4489
5776
3249
484
9
144
289
529
784
961
1681
2916
2601
1024
0
1369
4624
6084
3721
576
25
225
289
484
841
1225
2116
3249
2704
841
36
2116
5329
5929
3025
361
36
169
225
484
900
1296
2025
3025
2500
784
25
1681
4900
5776
3025
400
16
121
144
361
841
1444
2401
3364
2704
729
49
1936
5041
5776
2809
361
16
121
225
529
900
1369
2304
3249
2401
625
100
2209
5476
5625
2401
225
16
100
225
484
841
1296
2401
3364
2500
529
144
2401
5476
5625
2401
169
36
169
324
676
1089
1369
2209
2916
1936
361
225
2500
5625
5329
1936
81
49
144
289
625
961
1600
2601
3025
1849
225
324
2809
5929
5184
1681
49
64
144
289
625
1024
1681
2704
3025
1521
100
625
3364
5625
4624
1225
9
64
144
324
729
1225
1849
2704
2704
1296
64
625
3249
5625
4489
1369
25
81
196
400
784
1225
1849
2809
2809
1225
25
841
3600
5776
4225
1024
0
121
196
361
676
1089
1849
2809
2809
1225
4
1156
4096
5776
3969
900
0
121
225
400
784
1225
1849
2916
3025
1225
1
1156
3969
5625
3721
900
1
81
144
400
841
1225
2025
3025
2809
1156
4
1225
4096
5929
4096
841
1
169
196
361
729
1156
1936
2809
2809
1089
1
1156
4096
5776
3969
784
1
144
256
529
841
900
1444
2500
2809
1369
25
961
3844
5776
4096
841
1
144
169
324
729
1089
1681
2704
2809
1225
16
1024
3969
5625
3721
841
1
121
169
361
784
1156
1936
2916
2704
1024
0
1225
4225
5776
3600
625
9
169
196
400
729
1156
1849
2916
2704
1024
1
1369
4225
5776
3600
676
9
169
225
441
784
1156
1849
2809
2500
961
1
1296
4096
5776
3600
576
9
121
121
324
729
1296
2116
3136
2704
1024
1
1444
4489
5929
3600
529
9
196
256
400
676
1089
2025
3136
2601
900
1
1521
4489
5929
3600
625
4
169
256
529
784
1089
1849
2916
2601
900
4
1369
4225
5625
3364
576
4
144
196
400
729
1156
1936
2916
2704
1024
0
1369
4225
5776
3721
676
1
144
225
361
729
1156
2025
3136
2704
961
4
1444
4356
5776
3600
576
16
196
256
484
784
1089
1936
3025
2704
900
9
1521
4624
5776
3481
529
4
121
196
441
841
1296
2116
3025
2704
961
4
1600
4489
5929
3600
576
9
196
256
441
729
1089
2025
2916
2500
841
4
1369
4225
5625
3481
576
9
196
256
400
729
1089
1936
2916
2601
900
1
1296
4356
5625
3481
625
4
144
225
441
784
1156
1936
2916
2704
961
0
1444
4624
6084
3600
576
16
144
196
400
784
1225
2025
3025
2704
961
1
1444
4489
5929
3721
625
16
196
256
484
784
1089
2025
3025
2500
841
4
1521
4624
5776
3364
529
16
169
225
361
784
1225
2209
3249
2704
841
9
1600
4761
5776
3249
484
16
144
196
400
841
1369
2209
3025
2304
729
25
1681
4624
5776
2809
289
16
81
144
361
784
1296
2209
3249
2601
841
4
1600
5476
6889
3600
441
49
256
324
529
900
1296
2209
3136
2500
729
49
1936
5184
5929
2916
324
25
169
256
484
900
1296
2116
3025
2401
676
64
2025
5184
5776
2704
289
16
121
256
576
841
1296
2304
3364
2500
625
81
2116
5329
5625
2601
324
4
100
225
529
961
1521
2500
3249
2401
576
81
2025
4900
5476
3025
400
4
121
256
529
961
1444
2401
3249
2500
576
100
2304
5476
5476
2401
225
16
144
324
576
841
1296
2401
3249
2304
441
169
2500
5625
5476
2116
144
36
121
289
576
961
1521
2601
3136
1936
289
289
2704
5625
5329
1849
100
49
144
324
676
1089
1600
2601
2809
1521
121
484
2916
5625
4761
1369
16
81
144
289
625
1024
1681
2809
3025
1444
64
729
3364
5625
4356
1089
1
121
196
361
676
1024
1681
2809
2809
1156
9
961
3721
5776
4096
900
0
100
169
361
784
1156
1849
2704
2809
1369
25
900
3721
5776
4225
961
0
169
225
400
676
1089
1849
2809
2704
1156
4
1089
3844
5776
4096
900
0
144
196
361
784
1156
1849
2601
2601
1156
16
961
3844
5776
3969
900
0
144
196
361
625
1089
1849
2809
2809
1225
25
961
3969
6241
4225
841
4
196
256
400
729
1156
1936
2704
2401
961
1
1024
3600
5625
3844
784
0
121
196
400
729
1089
1849
2809
2704
1089
1
1024
3969
6084
4096
841
1
169
225
441
784
1156
1936
2916
2704
1089
0
1225
4225
5776
3721
676
4
169
196
400
729
1156
1764
2916
2704
1024
0
1296
4356
5776
3600
625
4
169
196
400
900
1225
1681
2500
2500
1089
4
1089
4096
5929
3844
729
1
144
225
400
784
1089
1849
2916
2704
1089
0
1225
4225
5625
3600
576
9
144
196
400
729
1089
1936
2916
2704
1024
0
1444
4761
6241
3600
529
16
144
169
400
841
1296
2116
3136
2601
841
9
1521
4489
5776
3364
529
9
169
196
400
784
1156
2116
3136
2500
784
9
1521
4489
5776
3249
529
16
144
196
400
784
1369
2304
3025
2500
841
9
1600
4900
6084
3364
441
25
144
169
400
841
1296
2209
3136
2601
900
4
1600
4624
6084
3481
529
16
169
256
441
784
1225
2209
3136
2601
841
25
1681
4900
5929
3025
441
16
144
225
484
841
1296
2209
3136
2601
676
64
1936
5041
5776
2916
361
25
144
256
484
900
1369
2401
3364
2704
729
100
2401
5329
5776
2704
289
25
144
256
529
961
1444
2500
3364
2304
484
144
2304
5329
5476
2304
225
9
81
225
529
961
1444
2500
3249
2304
441
196
2500
5476
5329
2304
169
36
144
289
576
961
1521
2601
3249
2025
324
225
2601
5625
5184
1681
100
16
81
225
625
1024
1600
2601
3136
1849
225
324
2704
5776
5329
1764
49
81
144
289
625
1089
1764
2704
2809
1444
100
529
3025
5625
4489
1225
4
81
100
256
625
1089
1764
2809
3025
1521
36
961
3721
5776
4225
1024
0
144
196
361
676
1089
1764
2704
2704
1296
16
961
3969
5929
4096
841
1
169
256
324
625
1024
1764
2704
2704
1156
16
1024
3844
5776
3969
784
1
144
196
361
676
1156
1849
2916
2704
1089
1
1156
3969
5776
3969
841
0
144
196
361
729
1156
1936
2916
2809
1089
0
1296
4225
5929
3844
676
9
196
289
484
784
1024
1521
2401
2401
1024
1
1225
4096
5625
3481
576
9
169
196
361
729
1156
2025
3136
2601
900
1
1369
4225
5776
3600
676
9
144
196
400
729
1156
1849
2809
2601
1024
0
1369
4624
6241
3600
576
25
196
256
441
784
1156
2025
3025
2601
900
4
1521
4356
5776
3481
484
16
100
144
361
784
1369
2304
3249
2500
729
25
1681
4624
5929
3249
441
25
169
256
441
841
1296
2209
3136
2500
729
36
1764
4900
5776
3025
400
9
144
225
441
841
1296
2209
3364
2601
729
36
1849
4900
5776
2916
361
16
121
196
484
841
1369
2401
3481
2401
441
196
2304
5184
5329
2304
196
36
144
256
529
900
1444
2401
3249
2304
484
144
2304
5329
5625
2304
169
25
121
225
576
961
1521
2601
3249
2116
361
225
2601
5776
5776
2304
144
36
169
324
676
1225
1849
2500
2809
1681
196
361
2916
5625
4900
1521
64
49
121
289
625
1089
1681
2704
3025
1521
100
576
3136
5776
4761
1296
9
81
144
324
625
1089
1681
2704
2916
1444
64
729
3481
5776
4225
1024
1
121
169
324
676
1024
1764
2704
2809
1296
25
961
3844
5776
4096
900
0
144
225
361
729
1089
1764
2809
2704
1156
9
1024
3844
5776
3969
841
1
144
196
400
729
1156
1764
2704
2704
1156
9
1024
3969
5776
4096
841
1
144
196
400
729
1156
1849
2809
2704
1156
4
1156
4225
5929
3969
729
4
169
196
361
729
1156
1849
2916
2809
1089
0
1225
4096
5776
3844
729
4
169
196
361
729
1089
1849
2809
2809
1089
4
1156
4225
5776
3844
729
4
144
196
400
729
1156
1849
2916
2601
1089
0
1225
4225
5776
3600
676
4
144
196
361
676
1156
1849
3025
2704
1024
1
1444
4489
5776
3481
576
9
169
225
441
784
1089
1936
3025
2601
900
4
1444
4356
5776
3481
576
9
169
225
441
784
1156
1936
2916
2601
961
1
1369
4356
5929
3721
676
9
169
256
400
729
1225
1936
2916
2704
961
0
1296
4096
5625
3600
729
0
100
196
441
841
1225
1936
2916
2704
1089
0
1296
4356
5929
3844
676
4
144
225
400
729
1156
1936
2916
2704
1024
0
1296
4356
5929
3721
625
4
169
196
361
676
1156
2025
3025
2704
1024
0
1369
4356
5776
3600
576
9
144
196
324
625
1089
2025
3025
2601
961
0
1225
4225
5625
3721
625
9
169
225
400
729
1156
1849
2809
2704
1024
0
1444
4489
5929
3600
625
9
169
225
441
841
1156
1936
2809
2401
784
4
1296
4225
5625
3481
529
9
169
225
400
729
1225
1936
2916
2704
961
0
1369
4225
5929
3844
676
4
144
225
400
729
1156
1936
2916
2601
1024
0
1296
4356
5929
3721
676
4
144
225
400
784
1225
1936
2916
2704
961
0
1369
4225
5776
3600
676
1
121
196
361
784
1225
2025
3025
2704
1089
1
1296
4489
6084
3844
625
9
169
196
361
676
1156
2025
3025
2704
1024
0
1369
4356
5776
3600
625
9
144
196
400
729
1156
1849
2916
2601
1024
0
1444
4489
5929
3481
576
9
169
225
361
729
1089
2025
3025
2704
1024
1
1521
4624
5776
3249
529
9
169
225
441
784
1225
2116
3136
2401
729
16
1521
4489
5776
3249
484
25
169
196
361
676
1156
2116
3136
2500
841
25
1681
4761
5776
3025
400
16
121
196
441
784
1225
2209
3364
2601
729
49
1936
5041
5776
2809
324
16
144
225
529
841
1369
2304
3249
2500
576
81
2025
5184
5776
2601
289
25
121
225
529
961
1444
2304
3249
2500
529
144
2500
5625
5625
2304
169
36
121
225
529
961
1444
2500
3249
2209
400
196
2500
5476
5476
2025
121
36
144
289
576
961
1521
2500
3025
1936
289
256
2601
5625
5184
1849
100
16
100
289
676
1089
1681
2704
3136
1681
144
484
3136
5776
4624
1369
25
64
144
361
676
961
1521
2500
2916
1600
100
576
3364
5776
4489
1156
1
100
169
361
676
1024
1764
2809
2809
1225
16
1024
3844
5776
3969
784
0
121
169
361
676
1089
1849
2916
2809
1156
1
1296
4225
5929
3721
676
4
169
196
400
729
1156
1764
2809
2704
1089
0
1296
4225
5776
3969
784
4
169
256
441
784
1296
2025
2916
2704
961
0
1296
4225
5776
3721
729
4
169
196
400
729
1156
1849
2916
2704
1024
0
1296
4225
5929
3844
729
4
169
256
441
784
1089
1764
2809
2809
1089
1
1296
4356
5929
3721
625
4
144
196
400
784
1225
1849
2809
2601
1024
0
1296
4225
5776
3600
625
4
169
196
400
729
1225
2025
2809
2500
841
0
1225
4096
5625
3481
625
4
144
225
400
676
1089
1849
2809
2704
1024
0
1521
4489
5929
3600
576
16
196
256
441
784
1156
2116
3136
2704
841
25
1600
4624
5776
3249
529
9
169
225
484
841
1156
1936
2916
2601
900
4
1681
4900
6084
3249
400
25
196
225
400
676
1156
2116
3249
2601
841
16
1681
4624
5776
3025
400
9
144
196
441
784
1225
2116
3136
2500
729
25
1764
4624
5625
3025
484
4
121
256
484
841
1296
2209
3249
2500
676
36
1936
5041
5776
2809
324
25
169
225
484
841
1296
2209
3249
2401
625
81
2025
5041
5625
2704
324
25
144
289
484
784
1225
2209
3136
2401
576
100
2116
5184
5476
2401
196
25
144
256
529
900
1369
2401
3249
2209
400
169
2500
5625
5329
2025
121
25
121
225
576
961
1600
2601
3136
1936
256
289
2601
5625
5184
1764
81
64
144
289
625
961
1521
2601
3249
1764
196
400
2809
5625
5041
1681
49
81
169
256
529
961
1600
2601
3025
1764
169
441
3025
5776
4900
1444
25
81
169
324
676
1089
1681
2704
2916
1444
81
676
3364
5776
4356
1225
16
64
169
361
729
1156
1764
2704
2916
1369
49
784
3600
5776
4356
1089
1
121
196
361
676
1156
1936
2916
2809
1296
9
961
3721
5776
4225
900
0
121
196
361
625
1024
1681
2704
2704
1225
16
900
3721
5625
3969
900
0
121
196
400
729
1156
1764
2809
2809
1156
9
1024
3844
5776
3969
841
1
144
225
400
729
1024
1600
2704
2704
1156
4
1089
3969
5776
3969
784
1
121
144
289
729
1225
1936
2916
2809
1089
1
1156
4096
5929
3969
729
4
169
196
361
729
1024
1849
2809
2809
1156
4
1225
4225
5776
3721
676
4
169
196
361
729
1156
1849
2916
2601
961
0
1225
4096
5776
3721
676
4
144
196
361
729
1156
1936
2809
2704
1024
0
1225
4225
5929
3721
729
4
169
225
400
784
1225
1936
2916
2704
1024
0
1369
4356
5929
3721
625
4
144
196
400
729
1156
1936
2916
2601
1024
0
1369
4356
5929
3600
625
9
169
225
441
729
1089
1936
3025
2704
961
1
1369
4356
5776
3600
625
9
169
225
400
729
1156
1936
2916
2601
900
4
1369
4225
5625
3481
576
9
169
196
400
784
1156
1936
2809
2601
961
1
1296
4356
5776
3600
676
4
144
225
400
784
1156
1936
2916
2704
1024
0
1296
4489
5929
3721
625
9
196
196
400
729
1156
1936
2916
2704
1024
0
1444
4489
5929
3721
676
9
169
225
361
784
1225
1936
2916
2601
1024
0
1296
4356
5929
3600
576
9
144
196
361
676
1156
1936
2916
2704
961
0
1369
4356
5776
3600
576
9
196
225
400
729
1089
1936
2916
2704
961
1
1369
4356
5776
3600
625
9
169
225
400
729
1225
2025
3025
2601
900
4
1369
4225
5776
3600
676
9
169
225
400
784
1156
1936
2916
2704
1024
1
1369
4225
5776
3600
676
4
144
256
441
784
1225
1936
2809
2500
961
0
1225
4225
5929
3721
676
4
169
225
361
784
1156
1936
3025
2704
1089
1
1225
4356
5929
3844
676
1
121
225
361
729
1156
2025
3136
2704
1024
0
1369
4356
5776
3600
625
4
169
196
400
784
1225
1936
2916
2704
961
1
1369
4356
5776
3600
625
9
169
196
361
676
1089
1849
2916
2704
1024
0
1369
4225
5776
3481
625
9
169
225
441
784
1089
1849
2809
2601
961
1
1369
4225
5776
3481
529
16
121
169
361
784
1225
2116
3025
2601
841
4
1444
4489
5929
3481
529
9
169
169
361
784
1296
2116
3136
2601
841
4
1369
4489
5929
3600
625
9
169
225
400
729
1156
1936
2916
2601
900
1
1369
4356
5776
3481
576
9
169
196
400
729
1156
1936
2809
2601
961
1
1369
4225
5776
3600
676
9
144
225
400
784
1156
2025
3025
2601
1024
0
1369
4489
6084
3600
529
9
169
225
441
784
1225
2116
3025
2401
784
9
1444
4356
5776
3364
529
9
144
169
361
729
1225
2025
3025
2704
961
1
1444
4356
5625
3600
576
9
144
196
400
729
1156
1936
2916
2601
961
1
1369
4356
5776
3481
576
9
144
196
400
729
1225
1936
2916
2704
961
1
1296
4356
5776
3600
625
9
169
225
400
784
1156
1936
2916
2704
1024
1
1296
4761
6724
4096
676
16
225
256
441
784
1225
2025
3025
2704
900
1
1444
4489
5776
3481
576
16
169
196
400
729
1156
2116
3025
2601
841
4
1521
4489
5929
3481
576
9
169
225
400
784
1296
2116
3025
2500
841
4
1444
4489
5929
3481
529
9
169
196
441
784
1225
2116
2916
2500
841
4
1444
4489
5929
3481
576
16
196
225
484
841
1296
1936
2809
2401
841
4
1521
4489
5929
3364
529
16
196
225
441
784
1156
2025
3025
2601
841
9
1521
4489
5776
3364
484
9
144
196
400
784
1225
2025
3025
2601
900
4
1369
4356
5929
3721
625
16
196
256
484
841
1225
2025
3025
2601
841
16
1681
4761
5929
3249
441
9
144
225
441
841
1296
2209
3249
2704
841
36
1849
4900
5929
3136
441
9
144
225
441
841
1225
2209
3136
2601
784
25
1681
4624
5625
3025
484
4
121
225
441
841
1225
2209
3136
2601
784
16
1764
4761
5929
3025
400
16
169
225
484
841
1369
2304
3136
2401
676
49
1936
5184
5929
2916
361
25
144
256
484
900
1369
2401
3249
2500
676
64
1936
5184
5929
2704
256
16
121
196
529
961
1444
2401
3364
2401
529
121
2304
5329
5625
2401
196
36
121
256
529
961
1521
2401
3136
2209
400
196
2401
5476
5476
2209
169
25
121
256
576
1024
1521
2500
3136
1849
225
361
2704
5625
5041
1681
64
49
121
289
625
1089
1681
2704
3025
1681
144
441
3025
5776
4761
1296
16
49
100
289
625
1089
1764
2809
3025
1521
81
729
3481
5625
4225
1089
4
100
169
324
625
1024
1681
2704
2809
1296
25
900
3721
5776
4096
841
1
144
169
324
676
1089
1849
2809
2809
1225
25
961
3844
5776
4096
900
0
144
196
361
729
1089
1764
2809
2704
1156
9
1089
3844
5776
3969
841
1
169
225
400
729
1089
1764
2704
2704
1225
4
1089
3969
5776
3969
841
1
144
169
324
729
1089
1849
2809
2809
1156
4
1156
4096
5776
3844
729
4
169
196
361
676
1089
1849
2809
2704
1156
1
1156
4096
5776
3721
676
4
144
169
361
729
1156
1936
2916
2704
1024
0
1296
4225
5776
3600
625
4
144
225
400
729
1225
1936
2916
2704
961
0
1369
4225
5776
3721
676
4
196
225
400
729
1089
1764
3025
2809
1024
1
1296
4225
5776
3721
625
9
169
196
400
729
1156
1764
2916
2601
1024
0
1296
4225
5776
3600
676
4
169
225
400
729
1156
1936
2916
2704
1024
0
1296
4356
5776
3600
625
9
169
196
361
729
1156
1936
3025
2809
961
0
1369
4356
5929
3721
676
4
169
196
400
729
1156
1849
2916
2601
1024
0
1296
4356
5776
3600
625
9
169
196
361
676
1024
1936
3025
2809
1024
0
1369
4356
5776
3481
576
9
169
196
400
784
1156
1936
2916
2601
961
1
1369
4356
5776
3600
625
9
169
196
400
729
1156
1936
2916
2704
961
1
1296
4356
5776
3721
676
9
169
225
400
784
1156
2025
2916
2601
1024
0
1369
4356
5929
3600
576
9
169
196
400
729
1225
1936
2916
2704
1024
1
1444
4356
5776
3600
729
4
144
225
441
784
1225
2116
3025
2809
1089
1
1521
4900
6400
3600
529
25
196
225
441
784
1225
2116
3025
2601
784
16
1681
4624
5776
3025
441
9
144
196
441
784
1225
2116
3136
2601
784
36
1764
4761
5929
3136
400
16
144
225
484
841
1296
2304
3249
2500
729
36
2025
5041
5625
2704
361
4
100
196
529
900
1369
2304
3249
2500
625
64
2116
5184
5776
2809
289
16
144
225
529
900
1369
2500
3481
2500
484
169
2304
5329
5476
2401
196
25
121
256
576
961
1444
2304
3025
2116
441
144
2304
5329
5476
2209
169
25
144
256
576
1024
1600
2601
3249
2025
289
289
2704
5625
5184
1764
81
64
144
256
625
1024
1600
2401
2704
1681
169
361
2809
5476
4761
1369
25
81
169
324
625
1024
1681
2601
2809
1444
64
729
3364
5625
4356
1156
1
121
225
361
625
961
1521
2601
2809
1369
49
784
3600
5625
4096
961
0
121
169
324
676
1024
1681
2704
2809
1225
25
900
3721
5776
4225
961
0
169
225
400
729
1156
1849
2809
2601
1024
4
1024
3721
5476
3844
841
0
121
169
324
676
1156
1764
2809
2916
1225
16
1024
3969
5929
3969
784
1
144
196
361
676
1089
1849
2916
2704
1089
1
1156
4096
5625
3721
729
1
144
196
400
784
1156
1936
2916
2704
1024
0
1296
4225
5776
3600
625
9
169
225
441
729
1089
1849
2809
2704
1089
0
1444
4761
6084
3600
576
9
169
225
400
729
1156
1936
2916
2704
961
1
1296
4356
5625
3600
576
9
144
196
400
729
1156
1936
3025
2601
961
1
1444
4489
5776
3600
625
4
144
225
400
784
1156
2025
3025
2704
1024
0
1369
4489
5929
3600
625
9
169
196
400
729
1225
1936
2916
2704
961
0
1369
4225
5776
3600
676
1
121
196
361
784
1156
1936
2916
2809
1024
0
1296
4356
5776
3600
625
9
169
196
400
729
1156
1936
2916
2601
961
1
1369
4356
5929
3600
576
16
196
196
361
729
1225
2116
3136
2601
900
4
1521
4489
5776
3364
529
9
144
196
400
729
1156
1936
2916
2704
961
1
1521
4489
5776
3481
576
9
144
225
441
841
1225
1936
2809
2601
961
1
1296
4225
5625
3600
625
16
169
225
324
729
1156
2025
3025
2601
900
1
1444
4489
5776
3600
625
4
144
196
400
784
1225
2025
3025
2704
961
1
1296
4356
5776
3481
576
9
144
196
400
784
1156
1936
2809
2500
961
1
1296
4225
5625
3600
625
4
169
196
400
729
1156
1849
2916
2601
1024
0
1369
4356
5929
3600
625
9
196
256
484
729
1024
1849
2916
2704
1024
1
1444
4489
5929
3481
576
9
169
196
400
729
1156
1936
2916
2704
1024
1
1369
4489
5776
3481
529
9
144
196
400
729
1156
1936
3025
2809
961
9
1600
4624
5776
3249
484
16
196
225
441
729
1089
2025
3025
2601
841
9
1521
4489
5776
3364
484
25
144
196
400
729
1156
2025
3136
2601
784
16
1681
4624
5776
3249
400
25
169
225
484
900
1296
2209
3025
2500
729
36
1764
5041
5776
3025
441
9
144
225
441
784
1225
2209
3249
2601
729
36
1849
5041
5929
2916
361
25
144
256
484
841
1369
2401
3249
2500
676
81
2116
5184
5776
2704
289
25
144
225
529
841
1369
2304
3364
2601
625
169
2601
5625
5625
2401
196
36
169
256
484
841
1369
2500
3481
2401
484
169
2401
5476
5625
2304
169
36
121
256
576
961
1521
2601
3364
2116
324
324
2809
5776
5184
1936
100
64
144
289
576
961
1600
2601
3025
1849
225
324
2704
5625
5184
1764
81
64
144
289
625
1024
1681
2601
2916
1681
144
441
3136
6084
4900
1369
9
100
169
324
729
1156
1681
2704
2809
1369
49
729
3481
5776
4356
1024
1
81
144
324
676
1156
1849
2809
2809
1296
25
841
3600
5776
4096
961
0
100
144
289
676
1156
1849
2704
2704
1225
16
841
3721
5625
4096
900
0
169
196
361
676
1089
1764
2704
2704
1225
4
1089
3844
5625
3844
841
0
121
169
361
676
1156
1849
2809
2704
1156
1
1089
3969
5776
3969
784
4
144
225
400
676
1089
1764
2809
2809
1089
1
1156
4096
5776
3844
784
4
144
169
361
784
1156
1849
2704
2704
1156
1
1225
4096
5776
3721
676
4
169
196
361
676
1089
1849
2916
2704
1089
0
1296
4225
5776
3600
625
9
196
225
361
625
1024
1936
2916
2704
1024
0
1225
4225
5776
3600
625
4
169
225
400
729
1156
1764
2916
2601
1024
0
1296
4356
5776
3600
576
16
169
196
400
729
1156
1936
3025
2601
900
4
1444
4356
5776
3364
529
9
144
196
400
729
1225
2025
3025
2500
841
4
1444
4356
5625
3364
529
9
169
225
441
729
1089
1849
2809
2601
961
4
1521
4489
5776
3364
529
16
169
256
441
784
1156
2025
3025
2500
900
9
1521
4489
5776
3249
529
9
169
196
400
729
1225
2025
3025
2601
900
4
1444
4489
5929
3481
529
9
169
225
400
729
1156
1936
2916
2601
961
1
1369
4225
5776
3481
576
9
169
196
400
729
1156
1936
2916
2601
900
4
1369
4225
5776
3600
625
9
169
256
441
784
1156
1764
2809
2601
961
0
1225
4225
5625
3721
625
16
144
169
361
729
1225
2025
3025
2601
900
1
1444
4489
5929
3600
625
4
144
225
400
784
1156
1936
2916
2704
961
0
1296
4225
5625
3481
576
9
144
196
400
729
1156
1849
2809
2601
961
0
1225
4225
5776
3721
676
1
144
196
400
784
1156
1936
3025
2704
1024
0
1369
4356
5776
3600
625
4
144
225
400
784
1225
1936
2916
2704
961
0
1296
4225
5929
3721
676
4
144
196
400
729
1156
1849
2916
2601
1089
1
1225
4225
5929
3721
676
1
144
196
400
729
1156
1936
2916
2704
1024
0
1296
4356
5776
3600
625
9
169
169
324
729
1156
2025
3025
2704
1024
0
1296
4356
5929
3721
625
9
144
225
441
676
1024
1849
3025
2809
1024
1
1444
4489
5776
3481
576
9
169
196
400
784
1225
2025
3025
2601
900
4
1521
4356
5776
3364
529
9
121
196
361
676
1156
1936
3025
2601
900
1
1369
4356
5776
3481
576
16
169
256
441
729
1024
1849
2916
2704
961
9
1600
4624
5776
3136
441
16
169
225
400
784
1156
2025
3025
2601
784
16
1600
4761
5776
3136
441
9
121
225
441
841
1225
2116
3025
2601
841
16
1681
4761
5929
3136
400
16
144
225
441
841
1225
2209
3249
2601
729
36
1849
4900
5776
2809
289
16
64
100
361
841
1369
2304
3249
2601
784
36
1849
4900
5776
2809
361
16
121
225
529
961
1369
2116
3136
2401
676
64
1936
5041
5625
2809
324
16
121
196
484
900
1444
2401
3249
2500
576
81
2116
5184
5625
2601
289
16
100
225
484
900
1444
2401
3249
2401
529
144
2304
5329
5625
2401
169
36
144
256
576
961
1521
2500
3249
2025
361
256
2601
5625
5476
2025
100
49
169
289
625
1024
1521
2500
3025
1764
196
400
2916
5929
5041
1600
36
81
169
324
676
1089
1681
2704
3025
1600
100
576
3364
5929
4900
1369
9
121
196
361
676
1089
1764
2704
2809
1369
36
784
3600
5776
4225
961
0
121
196
361
625
1024
1681
2704
2809
1225
9
961
3600
5625
4096
900
1
169
196
361
676
1089
1764
2809
2704
1225
16
900
3844
5929
4225
900
0
169
196
361
676
1089
1681
2809
2809
1296
9
961
3844
5776
4225
961
0
144
225
400
729
1156
1849
2704
2704
1156
25
841
3600
5625
4096
1024
4
100
196
361
729
1156
1849
2916
2809
1225
9
961
3844
5929
4225
961
0
169
225
361
729
1024
1764
2809
2809
1156
9
961
3844
5776
4096
900
0
144
225
324
676
1089
1764
2809
2809
1225
16
1024
3844
5776
3969
841
0
144
225
400
676
1156
1764
2809
2809
1089
1
1156
4096
5929
3844
784
4
144
196
361
729
1156
1936
2916
2704
1089
1
1156
4096
5929
3844
784
4
144
196
361
676
1089
1849
2916
2809
1089
1
1225
4096
5929
3844
729
4
144
225
361
729
1156
2025
3025
2704
1024
0
1296
4225
5929
3721
625
9
169
196
324
625
1156
2025
3136
2809
1024
0
1444
4489
5929
3600
576
9
169
196
400
729
1156
1936
2916
2601
1024
0
1369
4356
5776
3600
625
9
169
225
400
729
1156
1936
2916
2601
961
1
1369
4225
5776
3481
576
9
169
196
400
729
1156
1936
2916
2601
961
1
1296
4225
5625
3721
729
4
169
225
441
784
1156
1936
2916
2601
961
0
1296
4096
5625
3600
729
1
144
169
361
729
1156
2025
3025
2704
1089
0
1369
4356
5929
3721
625
4
169
196
400
729
1225
2025
3025
2704
961
0
1296
4356
5776
3721
729
4
144
196
361
676
1089
1936
2916
2704
1024
0
1225
4096
5625
3481
625
9
169
196
400
729
1156
1849
2809
2500
961
0
1296
4096
5776
3600
676
9
169
225
361
729
1156
2025
3025
2704
1024
0
1369
4356
5929
3721
676
9
169
256
400
729
1156
1849
3025
2704
961
0
1296
4225
5929
3721
676
4
169
196
400
729
1156
1849
3025
2704
1024
0
1369
4356
5776
3600
625
9
169
196
400
729
1156
1849
2916
2601
961
0
1296
4225
5776
3600
625
9
169
196
400
729
1156
1849
2916
2704
1024
0
1369
4356
5929
3600
625
9
169
225
400
729
1156
1936
2916
2601
961
0
1369
4356
6084
3721
576
16
169
256
441
784
1225
2116
3136
2601
841
9
1521
4489
5929
3481
576
9
169
225
361
729
1156
2025
3025
2601
961
1
1369
4356
5776
3481
576
9
169
225
400
729
1225
1936
2916
2601
961
1
1369
4356
5776
3721
676
4
144
225
400
784
1225
1936
2916
2704
1024
0
1444
4356
5776
3481
576
9
144
169
361
729
1225
2025
3025
2704
961
1
1444
4356
5776
3481
625
9
144
196
361
676
1156
2025
3025
2601
961
0
1156
3844
5625
3969
900
0
169
256
484
841
1225
1849
2916
2704
1024
0
1296
4225
5776
3600
676
4
144
225
400
784
1156
1849
2809
2500
900
0
1369
4356
5929
3721
625
9
169
196
400
729
1156
1936
2916
2704
1089
0
1521
4761
6084
3481
529
16
169
256
400
729
1225
2025
3025
2601
900
4
1444
4225
5625
3364
576
9
169
196
400
729
1156
2025
3136
2704
900
9
1521
4489
5776
3481
529
16
196
225
400
729
1156
2025
3025
2601
841
4
1444
4356
5776
3481
576
9
169
225
441
784
1156
2025
3136
2601
841
4
1521
4489
5929
3481
576
9
169
196
400
729
1156
1936
2916
2601
961
1
1296
4225
5625
3481
576
9
144
225
400
729
961
1764
2809
2704
1024
0
1296
4096
5776
3600
576
9
169
169
361
729
1225
1936
2809
2601
961
0
1296
4225
5625
3721
676
4
144
225
400
729
1156
1936
2916
2704
1024
0
1296
4356
5776
3600
625
16
169
196
361
676
1156
1936
2916
2704
961
1
1296
4356
5776
3600
625
4
169
196
400
729
1156
1936
2916
2601
961
0
1296
4225
5776
3721
625
4
169
196
400
729
1156
1849
2916
2601
1024
0
1225
4356
5776
3600
625
4
169
225
441
784
1089
1849
2704
2500
900
0
1225
3969
5476
3600
729
1
144
196
400
784
1225
1849
2704
2500
1024
0
1225
4225
5929
3721
676
4
144
225
361
729
1089
1849
2916
2809
1089
1
1225
4225
5776
3600
625
4
169
196
400
729
1156
1849
2916
2601
961
0
1225
4096
5776
3721
676
4
144
196
361
729
1156
1936
2916
2601
1089
1
1225
4096
5776
3721
729
4
144
196
361
729
1156
1936
2809
2704
1024
0
1296
4225
5776
3600
676
1
121
169
400
784
1225
2025
3136
2704
1024
0
1369
4356
5776
3600
625
9
144
169
361
784
1156
1936
2916
2704
1024
0
1369
4356
5776
3364
529
9
144
196
400
729
1156
1936
2916
2601
961
1
1296
4225
5776
3600
576
9
144
196
361
676
1089
1936
2916
2601
961
0
1296
4096
5625
3481
576
9
144
169
361
729
1225
1936
2916
2704
1024
1
1444
4356
5929
3600
576
16
169
169
361
729
1225
2025
3136
2704
900
4
1521
4356
5776
3364
529
9
121
196
441
784
1156
2025
2916
2500
841
9
1444
4356
5625
3364
529
16
144
225
400
729
1156
2025
3025
2401
841
9
1521
4489
5625
3249
484
16
169
196
441
784
1225
2025
2916
2500
784
16
1681
4761
5625
3025
361
16
169
256
484
729
1089
2025
3136
2601
729
36
1936
5041
5776
2809
324
16
144
225
484
841
1369
2401
3364
2500
576
81
2025
5041
5625
2704
289
16
100
225
484
900
1369
2401
3249
2304
529
100
2209
5184
5476
2401
225
25
121
225
576
961
1521
2401
2916
1936
400
169
2304
5184
5329
2116
121
49
121
196
529
961
1600
2601
3249
2025
324
256
2601
5625
5476
1936
100
49
144
256
576
961
1600
2500
3025
1764
196
361
2809
5625
5041
1600
49
81
144
289
625
1024
1681
2601
2916
1521
100
625
3249
5776
4489
1225
4
100
144
324
676
1089
1764
2704
2809
1369
36
841
3600
5625
4225
1024
1
121
169
324
729
1156
1764
2809
2809
1225
16
961
3844
5625
3844
900
1
121
169
324
676
1156
1936
2916
2916
1156
4
1089
3844
5625
3721
729
1
121
169
324
676
1156
1936
2916
2704
1024
0
1225
4225
5776
3721
625
4
144
169
361
784
1225
1936
2916
2704
1024
1
1369
4356
5776
3481
576
9
169
196
400
729
1156
1936
2916
2809
1024
1
1521
4624
5929
3481
529
9
169
196
400
784
1225
1936
2809
2500
900
0
1296
4225
5625
3481
576
9
169
196
400
729
1156
1849
2809
2601
1024
1
1444
4489
5776
3481
529
25
225
225
361
676
1225
2116
3136
2601
841
4
1521
4489
5929
3481
576
9
144
225
400
784
1225
2025
3025
2704
900
4
1444
4489
5929
3481
529
16
169
225
400
729
1156
2025
3025
2500
900
9
1521
4489
5625
3364
529
16
169
196
400
784
1156
2025
3025
2601
841
9
1600
4624
5776
3364
484
16
169
256
484
841
1296
2116
2916
2401
784
16
1681
4624
5776
3136
441
4
144
256
484
841
1225
2116
3136
2500
729
36
1849
4900
5776
3025
400
25
144
256
484
841
1296
2209
3249
2601
676
49
1936
4900
5625
2916
361
16
144
225
484
841
1296
2304
3249
2500
625
81
2116
5184
5625
2601
256
25
100
144
400
841
1444
2500
3481
2500
529
144
2401
5329
5476
2304
169
25
121
256
529
841
1369
2401
3249
2209
441
169
2401
5476
5329
2116
169
25
121
225
576
961
1521
2500
3136
2025
289
256
2601
5476
5184
1849
81
36
121
256
576
1024
1600
2601
3025
1764
196
361
2809
5625
5041
1600
36
81
144
256
576
1024
1681
2704
3136
1681
100
676
3364
5776
4761
1225
9
121
169
324
625
1024
1764
2704
2809
1369
36
784
3481
5625
4225
1024
0
100
169
324
729
1089
1681
2704
2809
1296
16
1024
3844
5776
3844
729
1
144
169
324
676
1089
1936
2916
2704
1089
1
1225
4096
5776
3721
729
4
169
196
361
676
1089
1936
2916
2809
1024
0
1296
4225
5625
3600
625
16
169
196
324
625
1156
2025
3025
2704
961
4
1369
4225
5625
3481
576
4
121
169
400
841
1225
2025
2916
2601
1024
0
1296
4356
5776
3481
576
9
144
169
361
676
1156
2025
3136
2704
1024
0
1444
4489
5776
3481
576
9
169
196
400
729
1156
1849
2809
2704
961
4
1444
4356
5625
3481
576
9
169
196
400
729
1156
1764
2809
2601
961
0
1225
4096
5625
3600
625
9
169
196
400
784
1156
1681
2704
2601
1089
1
1225
4225
5776
3600
625
4
144
196
400
729
1156
1849
2916
2601
1024
0
1296
4356
5776
3481
576
9
144
169
361
729
1156
2025
3025
2704
1024
0
1369
4489
5929
3481
576
9
144
169
400
729
1225
2025
3025
2704
961
1
1444
4356
5776
3481
625
4
144
196
400
784
1156
1764
2809
2601
1024
0
1296
4225
5776
3481
576
9
169
196
400
729
1156
1936
2809
2601
961
1
1296
4225
5625
3600
625
16
169
225
324
625
1024
1936
3136
2704
961
1
1369
4225
5776
3481
576
9
169
196
400
729
1156
1936
2916
2704
1024
0
1444
4356
5625
3481
625
4
121
144
361
784
1156
2025
3025
2601
961
0
1296
4225
5776
3600
625
9
144
225
400
729
1156
1936
2916
2601
961
0
1296
4225
5625
3600
676
4
144
196
361
729
1156
1936
2916
2601
1024
0
1225
4225
5929
3721
676
4
169
225
361
784
1156
1936
2916
2601
1024
0
1296
4225
5625
3721
729
1
144
225
400
729
1156
1936
2916
2704
1024
0
1444
4356
5625
3481
625
4
121
196
400
784
1089
1936
2916
2601
961
1
1369
4225
5776
3481
576
9
169
196
400
729
1156
1936
2916
2704
961
1
1369
4225
5776
3364
529
9
121
169
400
729
1225
1936
2916
2704
961
1
1296
4356
5625
3600
625
4
144
196
361
729
1156
2025
3025
2809
1089
1
1600
4489
5929
3600
576
16
169
256
441
784
1156
2025
3025
2500
900
4
1369
4356
5776
3481
576
9
169
196
400
729
1156
1936
2809
2500
900
0
1296
4225
5776
3600
625
9
169
225
400
729
1156
1936
2916
2704
1024
0
1369
4489
5776
3481
576
9
144
196
400
784
1156
1936
2916
2601
900
1
1369
4096
5625
3600
625
9
169
196
400
729
1225
1936
2916
2500
900
0
1225
4225
5776
3600
625
9
196
225
361
625
961
1764
2916
2809
1156
4
1156
4096
5929
3844
676
4
169
225
400
729
1156
1849
2809
2601
1024
0
1296
4225
5776
3721
676
4
144
196
361
784
1156
1936
2916
2704
1024
0
1225
4225
5929
3721
625
9
144
169
361
729
1156
1936
2916
2601
1024
0
1369
4356
5776
3481
529
16
169
196
361
676
1156
2025
3025
2601
841
9
1521
4489
5625
3249
484
16
169
225
441
729
1156
2025
3136
2500
784
16
1681
4624
5625
3025
441
9
144
196
400
729
1225
2116
3136
2601
784
16
1681
4624
5625
3025
441
9
144
196
441
841
1225
2116
3136
2500
784
25
1764
4761
5776
3025
400
9
121
225
441
841
1225
2209
3249
2601
729
36
1849
4900
5776
2916
361
25
121
225
484
900
1296
2116
3025
2401
676
64
1936
5184
5929
2809
289
36
169
196
400
784
1296
2401
3364
2500
625
81
2116
5184
5476
2500
225
36
144
225
484
841
1296
2304
3136
2304
529
121
2304
5329
5625
2304
169
25
121
225
576
961
1521
2500
3136
2116
361
196
2500
5476
5476
2025
121
36
121
256
576
1024
1600
2601
3136
1849
196
361
2809
5625
5041
1681
36
81
169
324
625
961
1444
2500
3025
1764
144
484
3249
5776
4624
1296
9
81
144
256
625
1024
1681
2601
2916
1444
81
576
3249
5625
4489
1225
4
100
169
324
676
1089
1764
2809
2916
1225
25
841
3600
5776
4356
1024
0
144
196
361
729
1089
1764
2809
2704
1225
16
1024
3844
5625
3969
900
0
144
196
361
784
1089
1849
2809
2704
1156
1
1156
4096
5776
3721
625
9
100
121
324
729
1156
1849
2809
2704
1089
1
1156
4225
5776
3600
625
16
196
196
324
625
1089
1936
2916
2704
961
0
1444
4356
5625
3364
529
16
169
225
361
625
1156
2025
3136
2704
900
9
1600
4624
5776
3249
484
16
169
196
400
729
1225
2116
3025
2500
784
16
1600
4624
5625
3025
361
25
144
225
400
729
1225
2116
3136
2500
729
36
1849
4900
5776
2809
324
25
169
225
441
784
1296
2304
3249
2304
625
64
1936
5184
5929
2809
289
25
144
225
529
841
1296
2401
3364
2401
529
100
2209
5329
5625
2401
196
36
121
225
529
961
1369
2401
3249
2209
441
169
2500
5476
5329
2209
144
25
121
225
576
961
1521
2500
3136
2025
289
256
2601
5329
5041
1936
121
49
144
289
576
961
1681
2704
3136
1681
196
400
2916
5625
4900
1521
49
64
144
289
576
961
1521
2601
3025
1600
144
484
3025
5625
4761
1296
16
81
121
289
625
1089
1681
2704
3025
1444
64
729
3364
5776
4489
1089
1
121
169
324
676
1089
1681
2704
2916
1444
36
900
3600
5929
4225
1024
0
144
225
361
729
1156
1764
2809
2704
1156
9
961
3721
5625
4096
961
0
169
225
324
625
1024
1764
2809
2809
1296
16
1024
3844
5776
3969
841
1
144
196
361
676
1089
1849
2809
2704
1156
1
1225
4096
5776
3721
676
4
121
169
324
729
1156
1936
2809
2601
1089
4
1089
3969
5776
3721
729
4
144
169
324
676
1156
1936
2916
2704
1089
1
1225
4096
5625
3600
625
4
144
196
324
676
1225
1936
2809
2401
900
0
1296
4096
5625
3481
576
9
169
196
400
729
1024
1849
2916
2704
1024
0
1369
4356
5929
3600
576
16
196
225
441
784
1089
1849
2916
2601
961
4
1444
4356
5776
3481
625
4
144
225
400
784
1225
1936
2916
2704
961
1
1369
4356
5625
3481
576
4
121
144
324
729
1156
2025
3025
2601
900
0
1296
4225
5776
3600
576
9
144
169
361
729
1225
2025
3025
2704
1024
0
1369
4225
5776
3600
625
9
169
196
400
729
1156
1936
2916
2704
961
0
1296
4096
5776
3721
729
4
169
196
361
676
1156
1936
3025
2704
1089
0
1444
4356
5776
3481
625
9
196
225
400
676
1024
1764
2809
2704
1089
0
1444
4489
5625
3249
529
9
169
196
400
729
1156
2025
3025
2704
900
9
1521
4489
5625
3481
529
16
169
196
400
784
1156
2025
3025
2601
900
4
1600
4624
5776
3481
529
16
196
289
484
729
1156
2116
3249
2601
676
49
1764
4624
5625
3136
441
16
169
225
441
784
1225
2116
3136
2500
729
25
1849
4761
5476
2916
400
9
144
225
484
841
1225
2209
3136
2500
729
49
1849
4900
5625
2916
361
16
144
256
484
841
1225
2209
3249
2401
625
81
2025
5184
5776
2704
256
36
121
196
484
900
1444
2401
3249
2304
529
100
2209
5041
5476
2401
169
25
64
144
441
900
1444
2500
3364
2304
441
144
2304
5329
5476
2209
169
36
121
225
529
961
1444
2500
3249
2025
289
225
2401
5476
5329
2025
121
49
144
289
576
961
1600
2601
3136
1764
169
361
2809
5625
5041
1600
36
81
169
256
576
961
1600
2601
3025
1764
169
400
2809
5625
4900
1681
64
64
169
324
676
1089
1764
2704
2916
1600
121
576
3481
6241
4624
1089
1
100
144
324
729
1156
1681
2601
2809
1296
25
961
3844
5625
3969
841
0
121
169
324
676
1089
1849
2809
2809
1156
16
961
3721
5625
3969
841
0
121
169
324
676
1089
1764
2809
2809
1225
25
900
3600
5929
4225
900
0
121
121
289
676
1156
1936
2916
2916
1225
16
961
3844
5929
4225
841
4
169
225
361
729
1156
1764
2809
2704
1156
9
1156
4096
6084
4096
784
4
144
196
361
676
1089
1764
2809
2809
1156
4
1156
3844
5625
3721
676
1
81
100
289
676
1156
1936
2916
2916
1225
9
1156
4096
5776
3844
676
4
196
225
361
625
1024
1764
2809
2809
1156
1
1225
4225
5929
3844
676
4
169
196
361
676
1089
1936
2916
2704
1089
0
1296
4225
5625
3481
625
4
196
256
400
676
961
1600
2704
2704
1156
4
1089
3844
5625
3721
729
1
144
225
400
729
1024
1764
2809
2704
1024
0
1296
4225
5776
3721
625
4
169
196
361
676
1089
1936
3025
2601
961
1
1225
4225
5776
3721
625
25
225
196
256
529
1089
2116
3025
2601
1024
1
1444
4489
5776
3481
529
9
169
225
400
729
1156
1936
2809
2601
961
1
1296
4225
5776
3600
676
9
169
225
400
729
1156
1849
2809
2500
900
0
1296
4096
5625
3481
625
4
144
196
400
729
1156
1936
2916
2500
900
0
1296
4225
5776
3600
625
16
225
225
361
676
1156
1936
2916
2601
961
1
1369
4225
5776
3481
576
9
169
196
361
676
1156
1936
3025
2809
961
9
1521
4356
5776
3600
576
16
169
256
400
729
1156
1849
3025
2809
1024
1
1521
4624
5776
3364
484
25
169
225
324
625
1089
1936
3025
2601
900
4
1521
4489
5776
3249
441
16
169
196
441
841
1225
2025
2916
2500
784
9
1681
4761
5929
3249
441
25
169
256
441
784
1156
2209
3136
2601
729
36
1849
4761
5476
2809
400
9
121
225
484
784
1089
2116
3136
2601
784
25
1849
4900
5625
2916
361
16
144
196
441
841
1225
2209
3249
2601
729
49
1936
5041
5625
2809
324
25
121
225
441
841
1369
2500
3136
2209
529
100
2025
4900
5476
2601
289
16
121
225
484
900
1444
2401
3249
2500
576
169
2601
5776
5476
2116
121
36
144
225
484
900
1444
2401
3136
2025
361
225
2500
5476
5184
1849
81
36
100
196
576
1024
1521
2500
3136
1849
256
289
2601
5476
5184
1764
64
64
144
324
625
1024
1521
2500
3025
1681
144
484
3025
5476
4489
1296
36
36
121
289
676
1089
1764
2809
2809
1369
49
676
3136
5329
4356
1296
9
81
169
324
676
1024
1681
2704
2916
1444
49
784
3600
5625
4225
1024
0
121
196
361
676
1089
1681
2601
2601
1225
16
961
3721
5625
3844
784
0
100
169
361
676
1156
1936
2916
2809
1225
9
1024
3969
5776
3969
841
0
144
196
400
784
1225
1936
2704
2401
841
0
961
3600
5329
3969
900
0
144
169
289
676
1089
1764
2704
2809
1369
36
900
3721
5929
4096
900
0
144
196
324
625
1024
1764
2704
2809
1225
16
1024
3721
5476
3969
900
0
144
196
361
676
1089
1849
2809
2809
1156
1
1156
4096
5776
3844
841
1
144
225
441
676
961
1681
2809
2809
1296
16
961
3844
5929
3969
784
0
100
144
289
676
1089
1849
2809
2809
1225
16
961
3844
5776
3844
784
4
144
196
361
676
1089
1764
2704
2704
1156
9
1089
3969
5776
3969
784
1
144
196
441
841
1225
1681
2304
2304
1089
4
1024
3844
5625
3721
729
4
169
225
400
625
961
1764
2916
2809
1225
4
1089
3969
5776
3844
729
1
121
169
324
625
1089
1849
2809
2704
1225
4
1225
4225
5929
3844
676
4
169
196
400
729
1156
1849
2809
2601
1024
0
1225
4096
5776
3600
676
9
169
196
361
729
1156
1936
3025
2704
1024
0
1296
4356
5929
3721
576
9
144
196
361
729
1156
2025
3025
2704
1024
0
1369
4356
5776
3600
625
9
169
196
361
676
1156
2025
3025
2601
961
1
1296
4225
5625
3481
625
4
144
196
361
784
1156
1936
2916
2704
1024
0
1369
4356
5776
3600
576
25
256
256
289
484
961
1936
3136
2704
1024
0
1369
4356
5776
3481
625
4
144
225
400
784
1225
2025
2916
2601
900
1
1369
4356
5776
3481
576
16
169
225
400
729
1156
2025
3025
2500
900
4
1444
4356
5776
3364
529
16
144
196
400
729
1156
2116
3136
2704
900
16
1681
4624
5625
3364
529
9
169
225
484
841
1296
2116
3249
2809
961
4
1444
4624
6561
3969
625
9
196
256
529
841
1369
2116
3025
2500
841
4
1521
4900
6084
3364
484
25
169
256
441
841
1296
2116
3025
2500
841
16
1681
5041
6084
3249
400
36
196
225
400
729
1225
2304
3364
2601
676
64
1936
4900
5625
2916
324
25
144
225
441
784
1225
2116
3025
2401
729
36
1849
4900
5476
2704
289
16
121
196
484
841
1225
2116
3136
2401
576
81
2025
4900
5184
2500
324
16
144
256
576
961
1369
2116
3025
2209
529
100
2209
5329
5476
2304
225
16
100
256
576
961
1521
2500
3136
2116
400
225
2500
5625
5476
2025
100
49
144
289
729
1024
1296
2116
3025
2025
289
289
2704
5625
5184
1681
64
49
144
289
625
1024
1521
2601
2916
1600
144
400
2916
5776
5041
1369
25
100
169
361
676
1024
1681
2704
2916
1369
36
900
3721
5776
4096
961
0
144
196
324
625
1024
1600
2500
2704
1296
36
841
3721
5625
3969
841
1
196
169
256
576
1024
1764
2809
2809
1296
25
900
3844
6084
4356
900
1
196
225
361
676
1089
1849
2916
2916
1089
0
1225
4096
5776
3844
729
4
144
196
361
729
1089
1849
2916
2809
1089
4
1156
4096
5929
3844
784
4
144
169
324
729
1089
1764
2809
2704
1156
4
1156
4096
5776
3721
676
9
169
196
361
676
1156
1849
2916
2601
1024
0
1296
4096
5625
3600
625
4
121
169
324
676
1089
1936
2916
2809
1024
0
1521
4489
5625
3364
529
16
196
225
361
729
1296
2304
3136
2401
625
25
1444
4225
5625
3136
484
9
144
169
400
729
1225
2116
3136
2500
841
16
1600
4624
5776
3136
400
16
144
196
400
784
1225
2209
3249
2601
729
49
1849
4900
5776
3025
361
16
169
256
441
729
1156
2209
3364
2601
676
64
2025
5184
5776
2704
289
36
196
225
324
625
1225
2500
3481
2401
529
100
2116
5041
5329
2401
196
25
121
196
441
900
1444
2401
3249
2304
484
144
2401
5329
5329
2025
144
16
81
196
529
961
1521
2500
3136
1936
324
225
2500
5476
5184
1936
100
49
144
256
576
961
1521
2500
3025
1849
289
225
2704
5929
5625
1849
49
81
144
256
576
1024
1600
2601
3025
1681
169
441
2916
5625
4761
1444
25
81
169
289
625
1089
1764
2809
2916
1521
81
676
3600
6084
4624
1089
0
144
144
225
625
1089
1764
2809
2916
1369
36
841
3481
5476
3844
961
4
81
169
324
676
1089
1764
2601
2809
1444
36
841
3600
5776
4356
1024
0
121
196
361
729
1225
1849
2704
2601
1089
4
1156
3969
5476
3721
784
1
144
196
361
729
1156
1936
2809
2704
1089
1
1156
4096
5625
3600
676
1
144
196
361
676
1089
1764
2809
2704
1156
1
1156
4096
5625
3600
676
1
121
169
361
625
1024
1764
2916
2916
1225
0
1521
4624
5776
3249
484
16
169
196
400
729
1089
1849
2916
2601
900
1
1444
4356
5625
3481
576
16
196
225
400
784
1225
1936
2809
2401
841
9
1521
4489
5776
3364
529
25
196
225
400
729
1156
1936
3136
2704
900
9
1600
4624
5625
3249
484
16
121
169
400
784
1156
2116
3136
2809
900
25
1849
4900
5776
3136
361
36
169
225
400
729
1225
2116
3136
2401
729
36
1849
4900
5625
2916
324
16
144
169
441
841
1296
2304
3136
2500
676
49
1936
5184
5776
2809
289
25
144
196
484
841
1296
2304
3136
2500
676
64
1936
4900
5625
2809
324
16
121
225
441
841
1369
2500
3364
2401
529
169
2304
5041
5041
2304
256
9
100
225
484
900
1444
2401
3249
2304
484
144
2401
5476
5476
2304
169
25
100
256
576
961
1521
2500
3249
2116
361
225
2500
5625
5329
1936
100
49
144
289
529
784
1369
2500
3136
2025
256
324
2704
5625
4900
1681
64
49
121
289
625
1024
1600
2500
2916
1681
144
441
3025
5476
4624
1296
36
49
121
289
676
1089
1681
2704
2916
1369
49
729
3364
5625
4225
1089
1
121
196
361
729
1156
1600
2500
2704
1296
16
961
3844
5625
3969
784
1
169
196
400
729
1089
1764
2601
2704
1156
9
1024
3844
5776
3969
784
0
121
196
361
676
1089
1764
2809
2916
1156
0
1296
4096
5776
3721
676
9
144
196
361
729
1156
1849
2809
2601
1024
1
1089
4096
6084
3969
676
9
169
225
400
729
1089
1849
2809
2601
1024
0
1369
4356
5776
3481
576
9
169
169
361
784
1296
2116
3136
2500
784
16
1444
4356
5625
3364
529
16
196
256
400
729
1225
2025
2809
2401
784
9
1600
4489
5625
3136
400
9
121
196
400
784
1156
2025
3025
2601
900
4
1600
4624
5625
3364
529
16
196
256
400
729
1296
2116
2916
2401
729
16
1600
4356
5329
3249
676
0
144
225
484
900
1369
2209
3136
2601
841
16
1764
4900
5625
2916
400
9
100
196
441
841
1369
2304
3136
2401
729
36
1764
4761
5776
3025
400
9
144
225
441
784
1225
2209
3249
2500
729
25
1764
4761
5776
2916
361
25
169
225
400
676
1225
2209
3136
2704
784
49
2209
5476
5776
2704
256
36
169
225
441
900
1369
2209
3136
2500
529
121
2209
5184
5476
2401
196
25
121
289
625
961
1296
2116
2916
2209
484
144
2304
5329
5329
2025
144
36
121
196
529
961
1600
2500
3136
2025
324
225
2500
5476
5329
1936
100
49
121
256
529
961
1444
2601
3136
1849
196
361
2809
5476
4900
1521
64
49
121
256
529
841
1521
2809
3600
2025
196
484
3025
5776
4761
1369
25
64
121
324
676
961
1444
2401
2916
1521
81
529
3136
5625
4624
1296
9
81
169
289
676
1089
1681
2601
2916
1521
100
676
3364
5476
4225
1296
36
49
144
361
784
1089
1764
2809
2916
1296
25
900
3844
5776
4096
961
0
121
169
324
676
1024
1764
2809
2916
1225
9
961
3721
5625
4225
961
1
169
196
324
676
1089
1764
2704
2809
1296
25
900
3721
5625
3969
900
0
121
169
361
676
1089
1764
2809
2916
1296
25
1225
4489
6400
3969
729
9
196
225
400
729
1156
1764
2809
2704
1089
1
1225
4096
5776
3721
676
4
144
169
324
676
1089
1849
2809
2704
1089
1
1156
3969
5476
3600
729
1
144
196
400
729
1089
1849
2809
2704
1089
0
1369
4356
5929
3721
625
16
196
256
441
784
1156
1936
2916
2500
900
1
1444
4489
5929
3481
529
16
169
225
400
784
1156
2025
3136
2601
841
9
1600
4624
5625
3364
484
16
169
225
441
784
1089
2025
3025
2500
841
16
1681
4624
5625
3136
400
16
169
225
441
784
1225
2116
3136
2500
729
49
1849
4900
5625
2809
400
16
144
256
441
784
1296
2401
3364
2401
576
81
2025
5041
5476
2500
256
16
100
196
484
961
1444
2401
3364
2401
529
121
2116
5184
5776
2500
256
25
121
256
529
900
1444
2500
3364
2209
400
196
2401
5329
5329
2116
144
36
100
196
484
900
1521
2500
3136
2025
324
256
2601
5476
5329
1936
81
64
121
225
529
961
1600
2601
3249
2025
256
324
2704
5776
5041
1764
49
64
144
256
576
1024
1600
2704
3136
1764
169
441
3025
5929
5041
1521
25
100
196
361
676
1089
1600
2500
2704
1369
49
784
3481
5625
4096
961
0
100
144
289
676
1089
1849
2704
2809
1225
16
841
3721
5776
4096
900
1
144
196
361
729
1024
1681
2704
2809
1225
25
961
3844
5776
3969
841
0
144
196
324
625
1024
1764
3025
2916
1225
4
1225
4225
5776
3844
841
0
144
225
400
784
1156
1849
2809
2809
1089
4
1089
3969
5929
4096
841
1
144
196
324
729
1156
1936
2704
2601
1156
4
1089
4096
5776
3721
729
1
144
196
361
729
1156
1936
2916
2809
1089
4
1089
4096
6241
4225
841
4
196
225
361
676
1089
1936
3025
2809
1024
1
1369
4356
5776
3481
529
16
144
196
400
729
1156
2025
2916
2601
900
4
1444
4356
5776
3481
576
9
169
225
441
729
1156
1936
2916
2601
961
1
1369
4489
5929
3600
576
16
196
225
400
729
1156
2025
3025
2601
900
4
1444
4761
6084
3481
529
25
196
289
400
676
1156
2025
3025
2704
900
9
1681
4624
5776
3249
441
16
196
256
441
676
1024
2025
3136
2704
841
36
1849
4900
5625
2916
324
25
144
225
441
784
1225
2209
3136
2601
729
49
2025
5041
5625
2916
361
16
144
225
529
841
1296
2209
3249
2401
625
81
2116
5041
5476
2601
256
25
144
256
484
900
1444
2401
3136
2116
441
144
2209
5184
5476
2304
169
25
121
256
576
961
1444
2304
3136
2025
400
169
2304
5329
5329
2025
121
25
121
256
576
961
1444
2500
3249
1936
324
256
2601
5476
5329
2025
121
64
169
256
529
961
1600
2601
3136
1764
169
400
2809
5625
4761
1444
25
64
169
289
625
1089
1681
2704
2916
1521
64
784
3600
5776
4489
1089
4
121
169
324
676
1089
1764
2809
2916
1296
36
900
3600
5776
4225
961
0
121
169
324
729
1089
1764
2809
2809
1369
16
1024
3969
5929
3969
900
0
144
196
361
729
1156
1764
2704
2704
1156
1
1225
4096
5776
3844
676
4
196
256
400
576
900
1681
2916
2809
1225
9
1089
4096
5776
3844
784
4
169
196
361
676
1089
1849
2809
2809
1156
1
1225
3969
5776
3844
784
1
144
196
400
729
1089
1849
2809
2809
1089
4
1156
4096
5929
3844
784
1
144
169
361
729
1156
1936
3025
2704
1089
0
1296
4096
5625
3844
784
1
144
225
400
784
1089
1849
2916
2809
1089
0
1296
4225
5776
3721
676
1
121
196
400
784
1156
2025
3025
2704
1024
0
1369
4356
5929
3600
625
4
144
225
400
729
1225
1936
2916
2704
1024
0
1444
4489
5776
3364
576
9
144
196
400
729
1089
1849
2916
2601
961
0
1369
4225
5625
3481
576
9
169
196
400
729
1156
1936
2809
2601
961
1
1296
4225
5776
3600
625
9
225
256
324
625
1156
2025
2916
2500
900
1
1225
3969
5625
3844
729
1
169
225
400
729
1156
1936
2916
2704
1024
0
1369
4356
5929
3600
625
9
169
225
400
729
1156
1936
2916
2601
961
0
1296
4356
5776
3600
625
9
196
225
400
729
1089
1849
2809
2601
1024
0
1369
4225
5625
3364
529
4
121
169
324
676
1156
1936
3025
2601
961
0
1225
4225
5625
3721
729
1
169
225
361
729
1156
2025
2916
2704
961
0
1296
4225
5776
3600
625
9
196
225
400
729
1156
1849
2809
2601
1024
0
1369
4356
5776
3600
625
9
169
225
441
729
1024
1849
2916
2704
1024
0
1296
4489
6084
3721
625
16
196
225
400
729
1156
2025
3025
2601
900
4
1444
4356
5929
3600
576
16
169
256
441
841
1156
1936
2809
2500
841
4
1444
4356
5625
3364
484
16
169
225
441
784
1156
2025
3025
2500
784
16
1600
4624
5776
3136
361
49
144
144
324
729
1296
2304
3364
2704
729
64
2025
5041
5776
2916
361
36
169
225
484
841
1225
2209
3136
2601
729
64
2025
5041
5625
2809
324
16
144
196
484
841
1369
2401
3364
2500
576
100
2209
5041
5329
2401
225
25
121
196
484
841
1369
2304
3136
2304
484
144
2401
5476
5476
2209
169
25
121
256
576
900
1369
2500
3249
2025
361
196
2500
5476
5329
1936
121
36
100
289
625
1024
1600
2500
3025
1764
225
324
2704
5625
5041
1600
36
81
121
225
576
1024
1521
2601
2916
1600
121
529
3136
5625
4489
1225
9
100
144
289
625
1024
1681
2704
2916
1369
49
729
3481
5625
4489
1089
1
144
256
400
676
1024
1764
2916
2809
1225
9
1024
3844
5776
3969
784
0
144
196
361
625
1024
1681
2704
2809
1225
16
1089
4096
6084
3969
676
9
196
225
400
729
1156
1764
2809
2601
1024
0
1296
4225
5776
3600
625
4
169
225
441
729
1089
1849
2916
2601
961
0
1296
4225
5625
3600
676
9
169
196
361
676
1089
1936
2809
2601
1024
0
1225
4225
5776
3481
625
4
144
225
400
729
1156
1936
3025
2704
900
4
1296
4225
5476
3600
625
9
169
256
361
625
961
1849
2916
2809
1089
1
1225
4096
5776
3721
729
9
169
225
324
625
1089
1936
3025
2704
1024
0
1296
4356
5776
3600
625
9
169
225
400
676
1089
1849
2809
2704
1089
0
1296
4225
5625
3481
576
9
144
196
400
676
1089
1936
2916
2601
961
0
1296
3969
5476
3481
625
1
121
169
400
729
1156
1849
2916
2601
961
0
1296
4225
5776
3600
625
9
169
225
400
729
1156
1849
2809
2601
1024
0
1444
4624
6084
3600
576
25
196
256
400
729
1225
2025
3025
2601
900
4
1521
4489
5929
3481
576
9
169
196
400
729
1156
1936
3025
2704
900
4
1369
4225
5625
3481
625
9
196
196
361
676
1089
1936
2916
2601
961
0
1369
4225
5776
3600
625
9
196
256
400
676
1024
1849
2916
2704
1024
0
1296
4225
5625
3721
676
4
144
225
361
784
1156
2025
3025
2704
1024
0
1369
4356
5776
3600
625
9
169
225
400
729
1089
1849
2809
2704
961
1
1369
4225
5476
3481
576
4
144
169
361
729
1156
1936
2916
2601
961
0
1225
4096
5476
3364
625
0
81
144
324
676
1156
1849
2916
2809
1156
4
1156
4096
5776
3844
729
4
144
196
361
729
1089
1849
2916
2809
1156
1
1296
4356
5929
3721
676
4
144
196
361
729
1089
1849
2916
2809
1156
0
1225
4225
5776
3721
625
4
144
169
324
729
1089
1936
2916
2704
1024
0
1369
4225
5625
3364
529
16
144
196
361
729
1156
1936
2916
2601
841
9
1521
4489
5476
3249
441
25
169
169
289
625
1156
2025
3025
2601
900
9
1600
4489
5776
3249
441
16
169
225
441
784
1156
2025
3025
2500
784
9
1600
4624
5625
3136
484
16
169
225
400
729
1156
2116
3025
2601
784
16
1764
4761
5625
3025
400
16
144
225
441
784
1225
2116
3136
2401
676
49
1849
4900
5476
2704
289
25
169
225
484
900
1369
2116
2916
2304
625
81
2116
5041
5476
2601
225
36
100
169
441
900
1444
2401
3249
2401
529
100
2116
5041
5476
2500
256
25
121
256
576
961
1444
2304
3249
2116
400
169
2401
5476
5476
2116
144
36
100
225
529
1024
1521
2401
3136
1936
289
289
2704
5625
5184
1681
64
49
144
256
576
961
1600
2601
3136
1764
196
324
2704
5776
5041
1681
64
64
144
324
729
1089
1521
2401
2809
1600
100
529
3025
5476
4489
1156
4
81
144
289
625
961
1681
2704
2916
1444
64
729
3364
5625
4356
1156
4
100
169
324
676
1089
1764
2704
2916
1369
36
841
3600
5776
4225
1024
0
121
196
400
784
1156
1764
2704
2704
1225
9
1225
4356
5929
3844
729
4
169
196
361
729
1089
1764
2809
2704
1225
16
900
3969
6241
4225
841
1
169
196
361
729
1089
1849
2809
2704
1156
4
1156
3969
5776
3844
729
4
169
196
361
676
1089
1849
2916
2809
1089
0
1296
4225
5776
3721
676
4
169
196
361
676
1156
2025
3025
2704
1024
0
1369
4356
5776
3600
625
9
196
256
361
676
1089
1849
2809
2401
841
1
1296
3844
5184
3249
529
25
196
196
324
625
1089
1936
2809
2500
841
4
1444
4225
5329
3136
441
16
144
169
324
676
1225
2025
3136
2601
784
16
1600
4489
5776
3249
441
25
196
225
400
729
1156
2116
3025
2500
729
25
1681
4761
5625
3025
400
25
169
225
484
900
1369
2209
2916
2304
676
49
1849
4900
5625
2809
289
36
169
225
400
784
1225
2304
3249
2500
676
81
2025
5184
5625
2601
289
25
121
225
441
841
1296
2304
3136
2401
576
121
2209
5329
5625
2304
169
49
144
225
484
841
1369
2401
3249
2304
441
169
2401
5476
5476
2209
169
25
121
225
529
961
1521
2500
3136
2025
289
256
2601
5476
5184
1849
81
49
144
256
576
961
1600
2601
3025
1764
196
361
2809
5476
4900
1681
64
64
144
256
625
1024
1681
2601
3025
1681
144
484
3025
5776
5041
1521
25
100
196
361
729
1156
1764
2704
2916
1369
36
841
3600
5776
4225
1089
1
100
169
324
676
1156
1849
2809
2809
1156
9
961
3721
5625
3969
841
1
169
169
324
625
1024
1764
2704
2809
1296
16
900
3844
5625
3969
900
1
144
196
324
625
1024
1681
2704
2809
1225
16
1024
3844
5625
3844
784
0
144
225
361
729
1089
1764
2704
2601
1089
1
1156
4096
5776
3969
729
4
169
196
361
784
1156
1849
2601
2500
1024
1
1089
3721
5184
3364
676
0
81
121
289
676
1156
1849
2916
2809
1156
1
1225
4096
5625
3721
676
4
144
196
361
676
1024
1764
2809
2704
1089
1
1296
4356
5929
3721
625
9
196
225
441
841
1156
1936
2916
2601
1024
0
1296
4356
5776
3600
676
4
169
225
400
676
1089
1936
2916
2601
961
0
1296
3969
5476
3721
676
9
169
196
324
676
1089
2025
3025
2704
961
1
1296
4225
5776
3600
676
9
169
225
400
729
1156
1764
2809
2704
1024
0
1296
4225
5776
3481
625
9
169
196
441
784
1089
1764
2704
2601
961
0
1296
4225
5625
3600
676
9
196
225
400
729
1156
1849
2809
2601
1024
0
1296
4356
5625
3600
576
9
144
225
361
676
1089
1849
2916
2601
900
1
1369
4225
5625
3364
576
9
169
196
400
784
1156
1936
2916
2500
841
1
1369
4225
5625
3481
576
16
169
225
361
676
1156
1936
2916
2601
900
9
1521
4356
5476
3249
529
16
144
196
400
729
1156
2025
3025
2500
900
9
1521
4489
5625
3364
484
16
169
225
361
729
1089
2025
2916
2500
784
16
1600
4624
5476
3025
361
25
169
196
441
784
1225
2116
3136
2500
729
49
1936
4900
5476
2601
289
16
100
169
441
841
1296
2304
3364
2500
576
100
2116
5041
5329
2401
225
25
144
225
484
841
1296
2209
3025
2116
400
144
2209
5041
5184
2209
169
25
121
256
529
900
1444
2500
3136
2025
361
225
2500
5329
5184
1936
100
49
121
256
529
900
1444
2500
3025
1849
289
256
2601
5476
5184
1681
49
64
121
256
529
961
1600
2601
3025
1681
169
400
2809
5625
4761
1444
25
64
169
289
576
961
1600
2601
2809
1600
100
529
2916
5476
4624
1444
25
81
196
441
729
1024
1521
2500
2704
1369
36
729
3364
5625
4225
1024
1
121
169
361
676
1089
1681
2704
2704
1225
16
961
3721
5776
3969
784
1
144
169
324
729
1089
1764
2916
2809
1089
0
1225
3844
5625
3721
676
9
169
196
361
729
1156
1764
2704
2500
1024
4
1089
3969
5776
3844
676
9
196
256
400
676
1024
1764
2601
2500
1024
0
1296
4225
5625
3481
576
9
196
196
361
729
1156
1936
2916
2601
961
1
1296
4225
5625
3600
576
16
169
225
361
676
1089
1849
2809
2601
900
1
1444
4356
5625
3481
529
16
225
289
441
625
961
1764
2916
2704
961
1
1369
4356
5929
3481
529
16
169
196
441
784
1156
1936
2916
2500
900
9
1521
4489
5625
3364
529
16
169
196
400
729
1225
2025
2916
2500
841
9
1521
4489
5625
3249
441
36
196
225
441
784
1156
1936
2916
2500
784
16
1681
4624
5776
3025
400
25
144
225
400
784
1296
2304
3136
2401
625
64
1936
4900
5625
2809
289
36
144
169
361
729
1225
2209
3249
2601
676
64
2025
5041
5625
2601
289
25
121
225
441
841
1369
2401
3136
2304
529
121
2116
5184
5476
2304
196
36
144
225
484
841
1369
2401
3136
2209
400
169
2304
5184
5329
2116
144
36
121
225
529
961
1444
2500
3136
1936
256
289
2500
5329
5041
1764
64
49
121
256
529
900
1521
2500
3025
1849
225
289
2601
5625
5329
1764
64
81
144
289
625
1024
1600
2500
2916
1600
121
484
3025
5625
4761
1369
16
100
169
324
625
1024
1764
2704
2916
1369
36
900
3600
5776
4225
900
0
144
169
324
676
1089
1764
2704
2809
1296
25
900
3600
5625
4096
900
0
121
169
324
625
1024
1681
2601
2704
1296
16
900
3844
5625
3844
729
0
100
169
324
676
1024
1764
2809
2704
1156
9
1024
3844
5625
3969
841
0
121
196
361
784
1156
1849
2809
2704
1156
4
1089
4096
5929
3844
841
1
144
196
361
729
1089
1849
2809
2809
1156
4
1225
4096
5776
3721
729
1
144
196
361
729
1089
2025
3136
2704
900
1
1296
3969
5476
3600
676
4
144
196
361
729
1156
1849
2601
2500
1024
1
1156
3969
5476
3600
625
9
144
196
400
729
1024
1764
2809
2601
961
0
1225
4096
5625
3721
729
1
144
225
400
729
1156
1849
2809
2601
1024
0
1225
4096
5625
3600
676
4
169
196
400
729
1089
1764
2809
2704
1156
0
1225
4225
5625
3600
729
1
121
196
361
729
1156
1936
2916
2809
1024
0
1225
4225
5929
3721
625
9
169
196
361
676
1089
1849
2809
2601
1024
0
1296
4356
5476
3364
529
25
169
196
361
729
1156
2025
3025
2500
729
25
1600
4489
5476
3025
441
25
144
196
361
729
1156
2116
2916
2500
784
25
1681
4761
5625
3025
361
16
169
196
441
784
1156
2116
3025
2500
729
36
1764
4761
5625
2809
324
25
169
225
441
841
1369
2304
3025
2401
576
81
2025
5041
5625
2704
289
25
144
225
484
841
1296
2304
3249
2304
529
121
2209
5184
5476
2401
196
25
121
256
529
900
1369
2401
3136
2209
441
169
2304
5329
5329
2025
121
49
144
225
441
841
1444
2401
3136
2025
324
225
2500
5476
5184
1849
81
49
144
256
576
961
1521
2401
2916
1764
225
289
2601
5476
5184
1849
64
64
144
289
625
1024
1681
2704
3025
1444
81
576
3025
5476
4624
1296
16
100
196
324
625
1024
1681
2704
2809
1369
36
784
3600
5625
4225
1024
1
121
196
361
729
1024
1681
2809
2809
1225
16
1089
3844
5776
3721
729
1
121
169
324
729
1296
2025
2704
2304
900
0
1156
3969
5625
3600
676
9
169
196
361
729
1156
1764
2704
2601
1089
0
1296
4225
5625
3481
625
4
169
196
361
729
1089
1936
2916
2704
1024
0
1296
4225
5776
3481
576
16
144
196
400
729
1156
2025
3025
2601
900
4
1444
4489
5776
3481
625
4
169
196
400
729
1225
2025
3025
2500
784
4
1369
4225
5625
3481
625
4
169
225
361
729
1089
1936
2916
2704
1024
0
1369
4225
5625
3364
576
9
169
196
361
729
1156
1936
2916
2601
900
1
1296
4225
5776
3600
676
4
169
225
400
676
1156
1936
2916
2601
961
0
1296
4225
5625
3600
625
4
169
196
400
729
1156
1849
2916
2601
1024
0
1296
4356
5776
3600
676
9
169
196
400
729
1225
2025
2809
2401
900
0
1296
4096
5625
3481
625
9
169
196
361
676
1089
1849
2809
2704
1089
1
1225
4225
5625
3600
625
4
169
196
361
729
1156
1849
2809
2601
1024
0
1369
4489
5929
3481
576
16
196
225
400
729
1089
1936
2916
2601
900
4
1521
4489
5776
3364
484
9
169
225
400
729
1156
1936
3025
2601
900
9
1444
4356
5625
3481
576
16
196
225
400
729
1156
2025
2916
2401
784
9
1521
4356
5625
3249
441
16
169
225
441
784
1156
2116
3025
2601
784
16
1681
4761
5776
3025
441
16
169
225
400
784
1225
2116
3136
2500
729
36
1849
4900
5625
2809
324
25
144
256
484
784
1089
2116
3136
2500
676
64
1936
5041
5625
2704
289
36
144
144
361
784
1296
2401
3364
2401
576
81
2025
5041
5476
2500
225
36
121
225
484
900
1369
2401
3249
2304
484
144
2304
5329
5476
2304
169
36
121
256
576
961
1444
2401
3136
2116
361
196
2500
5625
5329
1936
100
49
121
256
529
900
1444
2500
3136
1936
324
256
2809
5929
5329
1849
81
64
144
324
625
1024
1681
2704
3025
1681
144
441
2916
5476
4624
1444
36
64
121
289
625
1089
1681
2704
2916
1444
64
676
3364
5625
4356
1089
1
100
169
324
729
1089
1764
2809
2809
1225
25
900
3600
5625
4096
900
0
121
169
324
676
1024
1681
2601
2704
1296
16
900
3721
5625
3844
784
1
144
196
324
625
1024
1681
2809
2704
1225
16
1024
3969
5625
3844
841
0
144
225
400
729
1156
1849
2809
2704
1024
0
1296
4225
5776
3600
676
9
144
225
400
729
1089
1849
2916
2704
1089
0
1369
4356
5929
3600
576
9
144
196
361
729
1156
1849
2916
2704
1024
0
1369
4225
5625
3364
529
9
121
169
400
729
1156
1849
2916
2601
1024
1
1521
4624
5776
3136
484
16
169
225
441
784
1156
1936
3025
2601
784
16
1681
4624
5625
3025
400
25
144
196
400
729
1225
2116
3136
2500
729
36
1849
4761
5476
2809
361
25
121
196
441
784
1369
2209
3025
2304
576
64
1936
4900
5476
2601
256
36
121
225
441
841
1296
2304
3136
2401
576
100
2116
5184
5476
2401
196
36
121
196
441
900
1369
2401
3249
2209
441
144
2304
5625
5625
2209
121
49
121
256
576
961
1521
2500
3136
2025
256
256
2500
5329
5184
1936
100
49
121
256
576
1024
1600
2601
3025
1681
144
441
2916
5476
4761
1369
25
81
144
256
625
1024
1681
2704
2916
1444
64
625
3249
5625
4356
1156
4
100
169
289
625
1024
1681
2809
2916
1369
36
841
3481
5625
4096
961
0
121
169
324
625
1024
1681
2601
2809
1369
36
961
3844
5776
3969
841
0
169
256
324
576
961
1681
2704
2809
1225
25
900
3600
5776
4096
961
0
121
196
361
676
1089
1681
2704
2704
1156
16
961
3721
5625
3969
900
0
144
169
324
676
1089
1764
2704
2809
1369
25
900
3721
5776
4096
900
0
121
169
324
625
1024
1764
2704
2809
1225
16
1024
3844
5625
3844
784
4
169
169
256
576
1024
1764
2809
2704
1156
1
1225
4096
5476
3481
676
1
121
169
361
676
1089
1936
2916
2809
1089
0
1369
4489
5929
3600
576
16
196
225
400
729
1089
1936
2916
2704
961
1
1444
4356
5625
3364
529
16
169
225
400
676
1089
1936
2916
2500
900
9
1521
4489
5625
3249
484
25
169
225
361
729
1156
2116
2916
2401
784
16
1521
4624
5625
3025
400
16
144
169
400
784
1225
2209
3136
2601
784
25
1764
4761
5625
2916
361
16
121
196
484
784
1296
2209
3136
2500
676
49
1936
4900
5625
2809
289
25
169
196
361
676
1225
2304
3249
2500
576
81
2025
5041
5329
2401
225
25
121
225
484
900
1369
2304
3249
2209
484
144
2209
5329
5329
2304
169
25
121
225
529
900
1444
2500
3249
2116
361
196
2401
5476
5476
2116
121
49
144
256
576
1024
1600
2500
3025
1764
225
324
2704
5625
5041
1600
64
49
144
256
576
1024
1681
2601
2916
1600
121
484
3025
5625
4761
1369
16
100
169
324
625
961
1681
2704
2809
1369
49
729
3364
5625
4225
1024
0
121
169
324
625
961
1681
2601
2704
1296
36
841
3481
5476
4096
961
0
144
225
324
625
841
1444
2601
2916
1444
49
784
3481
5625
4225
1024
0
144
196
361
676
1089
1764
2704
2704
1225
9
1024
3844
5776
3969
900
0
144
196
361
729
1024
1681
2809
2809
1225
9
1024
3844
5625
3969
841
0
121
169
361
729
1156
1849
2704
2809
1156
9
1024
3844
5625
3721
729
1
144
196
361
676
1089
1764
2704
2601
1156
4
1156
3969
5625
3600
676
4
144
196
324
676
1089
1849
2916
2704
961
0
1225
3844
5476
3481
676
1
100
169
361
676
1156
1936
2916
2809
1156
4
1156
4096
5625
3600
676
4
144
169
324
676
1089
1849
2916
2809
1024
0
1296
4225
5776
3600
625
9
121
169
361
729
1156
1936
2916
2704
1024
0
1369
4225
5776
3481
576
9
169
169
361
676
1156
2025
2916
2500
961
0
1296
3969
5476
3481
625
4
144
196
361
625
1024
1849
2809
2601
961
0
1156
3969
5625
3481
625
9
169
196
361
729
1156
1849
2916
2601
961
0
1225
4096
5776
3721
676
4
144
196
361
729
1156
1936
2916
2704
1089
0
1296
4225
5776
3600
625
4
169
196
361
729
1156
1936
2916
2704
961
0
1225
4096
5776
3721
676
9
169
256
400
625
961
1764
2809
2704
1156
4
1225
4225
6084
3844
625
9
169
196
361
676
1089
1849
2809
2704
1089
1
1225
4225
5625
3721
676
9
169
225
400
729
1156
1849
2809
2601
961
0
1296
4225
5625
3721
676
4
169
196
361
729
1156
1849
2809
2704
1156
0
1225
4356
5776
3600
676
9
169
196
361
729
1156
1849
2916
2601
1024
0
1369
4356
5776
3481
576
16
169
196
361
784
1225
1936
2704
2401
900
0
1444
4356
5625
3481
576
16
169
196
400
729
1225
2025
2916
2601
900
4
1521
4489
5625
3364
529
16
196
225
400
729
1089
2025
3025
2500
841
9
1600
4624
5776
3136
441
25
196
225
400
784
1225
2025
3025
2500
729
36
1681
4761
5625
2916
324
25
121
169
400
784
1296
2304
3249
2500
676
49
1849
5041
5776
2916
324
25
144
196
484
841
1296
2304
3249
2401
625
64
1936
5041
5476
2704
324
25
121
225
441
841
1369
2401
3249
2304
484
121
2209
5184
5329
2304
196
25
144
225
484
900
1444
2304
3025
2116
400
169
2304
5184
5184
2116
144
36
121
225
484
900
1521
2500
3136
2025
289
256
2601
5329
5041
1849
81
49
121
256
529
961
1600
2500
3025
1764
225
361
2704
5625
4900
1521
49
49
121
289
625
1024
1600
2500
2809
1600
121
529
3025
5625
4624
1296
16
100
169
324
676
1089
1681
2704
2916
1444
25
961
3721
5625
3969
841
0
144
169
324
625
1024
1681
2809
2809
1369
25
900
3721
5625
3969
841
0
144
196
324
625
1024
1764
2704
2601
1156
9
900
3721
5776
3969
784
4
144
196
361
676
1089
1764
2704
2704
1156
9
1089
3844
5476
3844
841
0
121
196
400
676
961
1600
2704
2916
1296
16
961
3844
5625
3969
900
0
144
169
324
729
1089
1764
2704
2809
1296
36
1024
4225
6084
3844
784
4
169
196
361
676
1089
1849
2704
2704
1156
4
1156
3969
5625
3600
676
4
144
196
324
676
1089
1764
2809
2601
1024
0
1296
4096
5625
3364
576
16
169
196
361
729
1089
1936
2809
2500
900
1
1444
4356
5625
3364
484
25
169
169
324
625
1156
2025
3025
2704
961
1
1369
4356
5929
3600
576
16
196
225
441
784
1156
2025
2916
2500
784
16
1600
4489
5776
3136
441
16
144
225
441
784
1225
2116
3136
2500
784
25
1764
4900
5625
2916
361
25
144
225
441
784
1225
2209
3136
2401
625
64
1936
5184
5776
2601
225
36
121
196
361
784
1296
2401
3364
2500
625
100
2209
5041
5184
2304
196
25
100
196
441
841
1369
2401
3136
2209
441
169
2304
5329
5329
2116
144
49
121
225
484
900
1444
2401
3025
2025
361
225
2500
5476
5184
1936
100
49
144
256
576
1024
1681
2601
3025
1681
169
361
2809
5625
5041
1521
25
64
144
256
576
1024
1681
2601
2916
1600
121
576
3136
5476
4356
1225
9
81
121
256
676
1089
1681
2500
2601
1296
49
625
3136
5329
4096
1024
1
100
169
324
676
1089
1764
2704
2704
1296
16
900
3600
5476
3969
841
0
121
169
324
676
1089
1764
2704
2809
1225
9
1089
3721
5329
3844
961
1
121
196
400
784
1089
1681
2601
2704
1156
9
1024
3721
5776
3844
841
1
169
196
361
676
1089
1764
2809
2809
1296
25
900
4096
6724
4761
900
1
196
256
441
784
1156
1849
2809
2704
1156
1
1156
3969
5625
3721
729
1
144
196
361
676
1024
1764
2809
2704
1089
1
1225
4096
5625
3600
625
9
144
196
361
676
1089
1849
2809
2809
1024
0
1369
4225
5625
3481
576
9
169
196
361
729
1156
1849
2916
2500
900
1
1369
4096
5476
3364
625
1
144
225
400
729
1089
1849
2809
2704
1089
0
1369
4356
5929
3600
576
16
169
256
441
784
1156
1936
2916
2601
900
9
1444
4356
5625
3481
576
9
169
196
441
784
1024
1764
2916
2601
1024
0
1369
4225
5776
3481
576
9
169
196
400
729
1156
1936
2916
2601
961
1
1521
4624
5776
3249
484
16
196
196
400
784
1156
2025
2809
2500
841
4
1521
4356
5476
3136
441
16
144
196
400
729
1089
1936
2916
2601
841
4
1600
4489
5625
3136
484
9
121
225
441
784
1225
2025
2916
2601
841
4
1521
4356
5625
3249
484
9
169
196
400
729
1225
1936
2916
2601
900
4
1369
4096
5476
3481
625
4
121
169
361
729
1225
2025
3025
2704
961
1
1444
4356
5625
3600
576
9
144
196
361
784
1225
1936
2704
2401
900
0
1225
4096
5625
3600
676
1
121
196
400
784
1156
1849
2809
2601
1024
0
1296
4096
5625
3481
576
9
169
196
400
729
1089
1764
2809
2601
961
0
1225
3969
5625
3600
676
4
169
225
400
625
1024
1849
2809
2704
1089
0
1225
4096
5625
3600
625
9
169
256
441
676
961
1521
2601
2601
1156
4
1089
3969
5476
3721
676
1
144
196
324
676
1089
1849
2916
2601
1024
0
1296
4225
5625
3600
625
9
169
169
324
729
1089
1849
2916
2704
1024
0
1296
4096
5625
3481
576
9
169
225
400
676
1089
1764
2916
2601
961
0
1369
4225
5476
3364
576
9
144
169
324
676
1089
1936
2916
2704
1024
0
1369
4356
5625
3364
529
16
144
196
361
676
1225
2025
2916
2500
900
4
1444
4489
5625
3364
529
9
144
196
400
729
1156
1936
2916
2500
900
1
1369
4225
5625
3481
576
9
169
196
361
676
1156
1936
2916
2500
961
0
1296
4096
5625
3481
625
9
169
196
400
676
1156
1849
2916
2500
900
0
1225
3969
5476
3600
784
0
121
196
400
729
1225
1936
2916
2704
1089
0
1296
