1089
1225
900
841
1156
1764
2401
3721
6724
8836
6400
2025
0
1764
4761
3969
1024
0
289
576
676
625
484
625
1444
1849
625
100
2500
7569
11025
7921
1936
1
961
2401
3721
4225
3844
4096
4761
3721
729
529
6241
15376
19321
13225
4225
324
225
1681
4096
5929
7569
10609
12769
9409
2601
121
5625
14884
17161
11025
4225
1225
100
169
1089
2500
5041
9216
11449
7569
1681
225
4624
9025
7569
3025
729
121
0
100
324
625
1764
4225
5329
2916
225
1024
5184
7225
4225
676
9
361
784
1156
1296
1296
2116
3481
2916
625
361
4761
10609
11236
5476
784
49
900
2209
3364
3844
4356
5776
6724
4096
361
1156
7744
15376
14884
7396
1681
36
324
1600
3025
4225
5929
8649
9025
4761
361
1521
8464
14400
12100
5184
1156
49
144
961
1936
2916
5184
8464
8100
3481
64
2401
8836
11449
7225
2116
256
4
324
961
1521
2304
4356
6889
5929
1936
16
3364
9409
10609
5476
1156
36
144
676
1369
1936
2704
5041
6561
4356
676
529
5476
11664
11025
4900
676
9
484
1156
1936
2401
3481
5776
6400
3136
100
1764
8100
12996
10201
3481
289
64
729
1764
2704
3249
4900
7225
6241
1936
49
4096
11449
13924
8281
2116
144
100
900
2116
3136
4356
6724
8649
6241
1296
324
5476
12996
13689
7056
1764
121
121
900
1936
2916
4489
7396
8464
4761
529
1024
7225
12996
10816
4356
784
4
225
961
1681
2401
4096
7056
7056
3249
81
2209
8649
11881
7569
2116
144
64
529
1296
1849
2401
4225
6561
5184
1369
144
4356
10816
11449
5476
961
0
361
1225
2116
2601
3481
5625
6889
4096
400
1024
7396
14161
12996
5625
961
1
529
1681
3025
3721
5184
7744
7921
3844
144
2304
10201
15625
12100
4624
729
0
484
1521
2500
3600
6084
9409
8464
3136
0
3481
10816
13689
8281
2601
324
4
400
1225
1936
3025
5625
8464
6889
1936
64
4225
10816
11664
5776
1225
25
196
784
1600
2116
3025
5329
6889
3844
361
1089
7056
13225
11236
4225
484
25
676
1764
2704
3249
4761
7225
6889
2601
4
3721
11664
15376
10201
3136
289
81
900
2209
3249
4225
6889
9801
7744
2304
81
4900
12769
14884
8649
2401
256
36
729
1849
2809
4096
7056
9216
6400
1225
400
6084
13225
12996
6241
1296
36
196
1024
1936
2809
4489
7396
7744
3721
100
2401
9801
14161
9801
3025
289
36
576
1444
2401
3249
5476
8281
7056
2209
36
4225
11664
13456
7569
1936
100
121
900
1936
2704
3721
6400
8464
5625
961
529
6241
13456
13225
5929
1089
16
256
1156
2209
2916
4489
7225
7569
3600
100
2209
9604
14161
10404
3481
361
36
676
1764
2601
3481
5776
8281
7056
2209
49
4356
11881
13689
7921
2116
169
81
784
1849
2704
3844
6561
8649
5929
1225
324
5476
12544
12996
6241
1369
49
169
961
1936
2601
3969
6724
7744
4096
289
1521
7921
12996
10404
3721
484
4
400
1296
2116
2809
4761
7569
6724
2500
1
3481
10404
12996
7921
2116
100
121
841
1764
2500
3364
5625
7921
5776
1296
289
5184
12321
12769
6400
1444
49
225
1089
2116
3025
4624
7225
7744
3844
225
1521
8100
13689
11449
4356
676
1
441
1369
2304
3136
5041
7921
7396
2916
4
2916
10000
13225
8836
2601
256
36
576
1444
2304
3249
5625
8281
6724
1936
64
4356
11449
12544
6561
1600
64
121
784
1681
2304
3364
5929
7744
4761
729
676
6084
12544
11881
5329
900
1
324
1156
2116
2916
4225
6724
7056
3481
144
1849
8281
13456
10609
3844
529
16
576
1681
2704
3600
5329
7569
6724
2401
4
3600
10816
13689
8464
2500
225
49
625
1681
2500
3481
5929
8649
6724
1764
144
4624
11664
12544
6724
1600
81
121
841
1849
2500
3844
6241
7569
4489
529
900
6724
12769
11449
4761
784
0
361
1225
2116
2809
4356
6889
7056
3136
49
2500
9409
12996
8836
2916
400
16
576
1600
2401
3249
5184
7744
6561
2209
16
3844
11236
13225
7396
1936
121
100
729
1764
2601
3600
6084
8100
5625
1156
324
5329
12321
12544
6084
1296
36
196
1024
2025
2704
4225
7056
7396
3721
169
1849
8281
13456
10404
3721
484
9
484
1521
2401
3249
5184
7744
7056
2601
1
3481
10609
13456
8464
2401
196
49
625
1600
2500
3481
6084
8464
6724
1764
169
4761
11881
12769
6561
1600
100
121
900
1936
2704
3969
6561
7569
4225
400
1156
7396
13225
11236
4489
676
1
400
1369
2304
3025
4761
7396
7056
2916
16
3025
10404
13924
9025
2704
225
64
676
1681
2500
3481
5929
8464
6724
1849
100
4624
12100
12996
7225
1681
64
144
841
1764
2601
3844
6400
7744
4356
529
784
6241
12100
11236
4900
900
1
324
1225
2025
2601
4225
7056
7056
3249
64
2304
9025
13225
9801
3249
324
49
625
1600
2500
3136
4900
7396
6561
2209
9
3481
10609
13225
7744
1849
100
100
729
1681
2500
3600
5929
7921
5776
1225
324
5329
12321
12321
6084
1296
25
225
1024
2025
2704
4225
6724
7396
3721
225
1521
7921
13225
10816
4096
625
1
484
1444
2304
3136
4900
7744
7225
2809
0
3249
10404
13456
8649
2500
196
64
625
1600
2401
3249
5476
8100
6724
2025
100
4761
11881
12544
6561
1521
81
121
841
1849
2704
3721
6084
7921
4900
676
784
6561
12996
12100
5329
961
4
324
1225
2209
2809
4225
7056
7396
3600
100
2116
9025
13689
10201
3721
484
16
676
1764
2500
3249
5329
8281
7225
2401
16
4096
11449
13689
8100
2209
144
81
784
1849
2601
3721
6084
8281
6241
1369
324
5776
13225
13225
6241
1296
25
225
1089
2025
2916
4356
7225
7744
3721
144
1849
8836
13924
10609
3844
484
9
576
1600
2500
3249
5329
8281
7396
2601
4
3844
11236
13924
8464
2304
196
64
729
1849
2601
3600
6241
8836
6561
1600
225
5184
12769
13225
6724
1600
81
169
1024
2116
2916
4356
7056
7744
4225
324
1225
7396
13689
11881
4761
729
0
441
1444
2401
3249
5041
7744
7396
3025
9
3025
10404
14161
9216
2809
289
25
625
1681
2500
3481
5929
8649
7056
2209
49
4356
11881
13689
7569
1936
121
81
729
1681
2601
4096
6889
8464
5476
900
576
6084
13456
12996
6084
1225
9
289
1225
2209
3025
4489
7225
8100
3844
121
2209
9025
14161
10609
3721
484
9
576
1681
2500
3364
5476
8464
7396
2601
9
3844
11449
13924
8649
2500
225
64
729
1764
2601
3600
6084
8649
6724
1681
196
4761
12544
13689
7056
1444
25
196
961
1849
2601
3969
6724
7921
4489
484
1225
7744
13924
11881
5041
961
1
400
1444
2500
3249
5184
7921
7569
3136
25
2916
10201
13924
9216
2809
256
64
676
1681
2401
3364
5776
8464
7056
2025
100
4624
12100
13456
7396
1849
121
100
900
1936
2704
4096
6889
8464
5184
625
1024
7225
12996
11449
5041
1024
16
289
1296
2209
3025
5041
7744
7396
3025
16
3025
10609
13924
9216
2916
289
49
729
1936
2809
3600
6084
8649
6561
1764
121
4489
11881
13456
7225
1681
81
100
784
1849
2500
3600
6241
8281
5476
961
625
6400
12996
12544
5929
1089
1
324
1156
2025
2601
4225
7225
7744
3600
121
2209
9409
13924
10201
3249
361
25
625
1681
2500
3364
5625
8464
7225
2401
16
4356
11881
14161
7744
2025
169
49
625
1764
2809
3844
6724
8649
5929
1225
361
5929
13225
13225
6241
1296
25
196
961
2025
3025
4489
7225
7569
3844
225
1681
8649
13924
11025
3969
576
1
441
1600
2601
3364
5329
8100
7225
2601
0
3481
10816
14161
9025
2601
225
64
729
1764
2601
3600
5929
8649
6889
1764
225
5329
12769
12996
6400
1521
121
100
961
2025
2916
4225
6724
7921
4489
484
1156
7569
13456
11664
4900
784
0
441
1369
2304
3136
4900
7744
7225
2916
9
3025
10404
13924
9216
2809
289
49
676
1681
2500
3364
5776
8649
7396
2304
64
4489
12100
13924
8100
2025
36
225
784
1521
2209
3600
6561
8836
5776
1024
529
6400
13456
12996
6084
1156
9
289
1156
2209
3025
4489
7396
8100
4096
169
2116
9604
14641
11025
3969
529
9
484
1600
2601
3600
5476
8100
7396
2809
1
3721
11449
14161
8836
2601
256
49
784
2116
3025
3721
5929
8836
7056
1849
196
5329
13225
14161
7056
1600
64
169
1024
2209
3364
4900
7569
8100
4096
256
1764
8649
14641
11881
4489
729
0
400
1521
2601
3364
5041
7921
7921
3249
9
3249
11025
14641
9409
2809
289
36
576
1849
2916
3721
6084
8836
7225
2116
81
4624
12321
13924
7744
2025
144
100
900
1849
2809
4225
6889
8649
5476
841
729
6561
13689
12996
5929
1225
16
289
1296
2304
3025
4761
7744
8100
3721
100
2401
10201
14884
10404
3364
400
36
625
1681
2704
3481
6084
9216
7744
2304
81
4761
12544
14161
7921
2025
121
100
900
1936
2809
4096
7056
8836
5329
729
784
6889
13689
12769
5776
1089
9
289
1296
2209
2809
4356
7396
8100
4096
144
2401
10000
14400
10404
3481
441
36
784
1849
2500
3364
6084
9216
7569
2209
81
4624
12321
14400
8100
2116
144
81
784
1936
2916
4225
6724
8649
5929
1156
441
6084
14161
14161
6400
1225
9
289
1225
2209
2916
4489
7396
8100
4096
169
2209
10000
15129
10816
3481
324
49
676
1764
2601
3600
5776
8649
7396
2401
49
4624
12769
14400
7921
2025
144
81
784
1764
2704
3969
6724
8836
5929
1089
484
5929
13225
12996
6084
1296
36
225
1225
2500
3025
4356
7396
7744
3721
100
2500
10000
14400
10201
3364
361
25
625
1681
2500
3481
6084
9025
7569
2209
81
4489
11664
13689
8100
2209
196
81
784
1849
2601
4096
6889
8836
5776
961
529
6084
13456
13456
6241
1156
9
225
1024
2209
3025
4489
7056
7921
4096
225
1936
9025
14400
11025
3969
529
16
625
1764
2704
3481
5329
8464
7744
2601
16
4096
11664
14400
8464
2304
169
64
676
1681
2809
4225
6889
9025
6724
1521
256
5625
13456
14161
6724
1444
64
121
900
1936
2704
4225
7225
8464
4761
484
1225
7921
14400
11881
4624
784
1
361
1369
2304
3136
5041
8281
7744
3364
25
3025
10816
14641
9604
2916
324
25
676
1849
2809
3721
6084
8649
7056
2304
64
4900
12996
14161
7744
1936
144
100
900
2025
2809
4096
6889
8836
5929
900
784
7225
14161
12996
5776
1089
9
324
1296
2304
3025
4761
7744
8100
3721
81
2500
10000
14641
10404
3481
441
25
676
1849
2809
3481
5625
8464
7569
2809
9
4489
12544
14641
8464
2304
169
64
784
1849
2809
3969
6724
9409
6400
1296
400
6084
13689
13924
6724
1296
16
256
1156
2116
2916
4489
7569
8100
3969
144
2209
9409
14161
10609
3844
529
16
625
1681
2601
3600
5929
8836
7569
2500
16
4225
12100
14161
8281
2209
196
64
784
1849
2601
3721
6400
8836
6400
1444
289
5625
13225
13689
6889
1521
64
169
1089
2209
2916
4356
7921
9025
4489
169
2116
9409
14884
11449
4096
529
9
576
1681
2500
3364
5625
8464
7225
2704
0
3844
11881
14400
9025
2601
225
64
784
1849
2704
3721
6400
9216
7225
1849
169
5476
13225
14161
7056
1600
81
144
961
1936
2704
4225
7056
8464
4761
529
1156
7744
14161
12321
5184
841
0
400
1369
2304
3025
5184
8464
8100
3364
25
3025
10609
14641
10201
3249
361
36
625
1600
2500
3481
5929
9025
7569
2704
1
3969
12100
14400
8649
2500
256
49
841
2025
2704
3844
6561
9025
6084
1089
441
5776
13225
13456
6400
1444
49
225
1225
2209
2916
4489
7569
8281
4096
196
2209
9604
14641
11025
3969
529
16
625
1764
2601
3481
5776
8836
7569
2500
25
4225
12100
13924
7921
2116
196
49
676
1764
2601
3721
6889
9216
6241
1089
400
6084
13689
13225
6084
1156
25
196
1024
2116
2916
4489
7569
7921
3844
169
2116
9801
15129
11025
3600
361
36
625
1681
2601
3721
6084
8836
7569
2401
49
4624
12544
14400
8100
2116
121
100
841
1936
2916
4096
6889
9025
5776
1024
529
6084
13225
13225
6241
1369
49
225
1156
2116
3025
4761
7744
8100
3844
100
2500
10000
14641
10201
3136
289
49
676
1681
2401
3364
5776
8464
7225
2401
49
4900
12996
14400
7921
1936
121
144
900
1936
2809
4225
7056
8649
5476
784
625
6561
13689
13225
6084
1156
9
361
1444
2401
2916
4356
7225
7744
3844
121
2304
9801
14400
10609
3481
400
36
625
1764
2601
3600
5929
8649
7396
2304
49
4356
12100
14161
8281
2209
144
81
784
1849
2704
3721
6889
9604
6724
1444
361
6084
13689
13924
6889
1521
64
169
1089
2209
3025
4624
7569
8100
3969
196
1936
9025
14400
11236
3969
529
16
576
1600
2601
3364
5625
8836
7744
2601
16
4096
11881
14161
8281
2116
121
121
729
1521
2500
3969
6724
9025
6241
1225
400
5929
13225
13225
6241
1296
36
196
1024
2116
2916
4489
7569
7921
3721
144
2025
9216
14400
10609
3600
441
16
576
1600
2500
3364
5776
8649
7569
2500
16
4225
11881
14400
8464
2209
169
81
784
1936
2916
4096
6724
8836
6241
1225
441
6084
13456
13456
6400
1296
25
225
1089
2116
2809
4356
7396
8100
3844
100
2209
9409
14161
10201
3364
400
25
576
1521
2601
3481
5776
8649
7056
2209
49
4356
11664
13689
7921
1936
121
100
841
1936
2809
3969
6400
8281
5184
784
529
5776
12544
12544
5776
1225
16
256
1225
2304
3025
4489
7056
7396
3364
64
2304
9025
13924
10201
3600
441
36
729
1764
2500
3136
5184
7921
6889
2209
36
4096
11025
12769
7569
2025
121
100
784
1849
2601
3844
6400
8281
5476
1024
484
5776
12769
12544
5776
1156
4
324
1156
2025
2601
3969
6561
7225
3600
121
2025
8649
13456
10000
3364
361
36
625
1600
2500
3136
4900
7225
6241
2116
36
3969
11025
12769
7225
1764
81
121
900
1936
2601
3481
5625
7744
5329
1024
441
5476
12321
12100
5476
961
4
256
1024
2025
2704
3844
6084
7056
3600
196
1444
7744
12769
10404
3721
441
25
529
1521
2304
3025
4624
6889
6084
1936
49
3844
10609
12321
7225
1764
81
121
841
1681
2401
3249
5625
7921
5929
1296
361
5329
11664
11664
5476
1024
4
225
900
1764
2500
3721
5929
6561
3364
169
1225
6400
11664
9604
3600
441
9
400
1225
2209
2809
4096
6084
5929
2304
0
3025
9409
12321
8281
2116
49
196
841
1681
2401
2916
4489
6561
5625
1521
144
4489
10816
12100
6400
1296
16
256
1024
1936
2601
3364
5625
7225
4624
625
841
6400
12544
11236
4761
729
4
484
1296
2116
2601
3844
5776
6084
2704
36
2209
8464
12321
9025
3025
225
100
961
1936
2401
2704
4356
6400
5329
1444
121
3969
10000
11664
6400
1369
16
225
1024
1936
2500
3249
5329
6724
4096
441
841
5929
11449
10201
4225
576
9
441
1156
1936
2304
3249
5184
5776
2809
64
1681
7225
11664
9025
2916
196
100
676
1600
2401
2809
3969
5929
4900
1296
144
4096
10000
11449
6241
1156
1
324
1089
1936
2500
3364
5041
6241
3844
576
625
5476
11025
10404
4624
729
4
400
1225
2209
2809
3721
5476
5929
2809
49
1849
7569
12321
10000
3364
225
169
729
1444
2209
2704
3969
5776
5041
1681
49
3481
9216
11025
6561
1444
9
256
900
1764
2401
2809
4489
6084
4356
784
400
5041
10816
10816
5041
784
1
400
1296
2209
2601
3136
4624
5625
3249
256
1024
6241
11449
9801
3844
324
100
625
1225
1849
2304
3249
4900
5041
1936
0
2209
7569
10816
7744
2304
81
196
900
1764
2304
2500
3364
5041
4356
1296
144
3969
9409
10609
5476
961
1
361
1024
1849
2304
2601
3844
5041
3721
625
484
4900
10000
9801
4356
576
25
441
1089
1849
2401
2809
4225
5041
2916
196
1156
6084
10609
8836
3136
256
100
625
1444
2116
2401
3136
4624
4356
1681
9
2704
8100
11025
7225
1849
49
256
1156
2025
2401
2500
3481
5041
3969
961
225
3969
9216
10201
5329
841
4
400
1089
1764
2116
2601
3969
5329
3600
529
625
5184
10201
9409
3844
441
25
484
1225
2025
2304
2809
4225
5184
2704
144
1225
6400
11025
9025
3025
225
81
625
1600
2304
2500
3249
4761
4624
1681
16
2704
8281
11025
7225
1936
49
256
900
1764
2304
2704
3969
5476
4225
961
225
4225
10000
10816
5476
900
4
400
1089
1681
2116
2601
4225
5929
3844
576
676
5476
10816
10201
4225
529
36
529
1225
1936
2401
3136
4761
5329
2401
36
1600
6724
11025
8649
2809
196
100
729
1600
2401
2916
3721
5041
4356
1296
81
3364
8836
10609
6400
1521
16
289
961
1849
2500
2916
3969
5184
3844
729
400
4356
9604
10000
4761
729
4
400
1024
1849
2116
2601
3969
5041
3136
324
784
5329
9801
8649
3364
361
49
529
1225
1849
2209
2809
4225
4489
2025
16
1764
6561
10000
7569
2401
100
196
841
1681
2209
2209
2916
4356
3969
1089
100
3136
8100
10000
5776
1156
0
361
1024
1764
2209
2500
3600
4900
3364
529
529
4624
9409
9025
4096
529
25
441
1156
1764
2025
2601
4225
4900
2704
169
1024
5776
9801
8281
2916
196
121
625
1369
1936
2209
2704
4096
4225
1600
0
2025
6724
10000
7225
2116
64
256
841
1681
2209
2401
3136
4489
3844
1089
121
3481
8836
10201
5776
1089
0
400
1089
1936
2500
2601
3600
4761
3249
484
529
4761
9409
9025
3969
484
25
441
1024
1764
2025
2601
3969
4900
2704
144
1089
5776
10000
8100
2809
169
121
625
1369
2025
2209
2809
4096
3969
1521
4
2304
7225
10000
6561
1849
36
256
961
1849
2401
2401
3025
4225
3600
841
256
3600
8464
9604
5476
1024
9
576
1089
1764
2025
2401
3600
4900
3364
576
484
4761
9604
9409
4356
484
49
529
1225
1936
2116
2304
3600
5041
3025
256
1024
5929
10201
8649
3136
225
121
676
1369
1849
2209
2916
4225
4225
1521
4
2116
6724
9801
7056
2116
64
196
841
1600
2209
2401
3136
4356
3844
1089
100
3249
8281
10000
5776
1225
1
576
1225
1681
1849
2209
3481
4900
3249
400
484
4356
9216
9025
4225
484
36
484
1156
1764
2209
2601
3969
4761
2809
225
1024
5776
10000
8464
2916
196
121
676
1444
1936
2116
2704
3969
4096
1444
9
2209
7056
9801
6724
1849
25
289
900
1681
2116
2401
3136
4489
3844
961
169
3249
8281
10201
6084
961
16
441
961
1600
2025
2401
3721
4761
3136
529
484
4356
9025
9216
4225
576
36
529
1225
1936
2116
2401
3600
4761
2916
256
900
5329
9604
8464
3249
289
81
576
1296
1936
2209
2601
3844
4356
2025
25
1521
6400
10201
7921
2500
100
225
841
1600
2116
2209
2916
4356
3969
1156
81
3025
7921
10000
6241
1444
1
400
1089
1849
2401
2601
3364
4356
3364
625
361
4225
9025
9216
4356
625
16
441
1089
1764
2209
2500
3600
4624
2704
256
841
5329
9409
7921
2809
144
144
576
1156
1681
2025
2500
3721
4225
2025
49
1369
6400
10404
7921
2500
100
169
729
1764
2704
2809
3025
3969
3481
961
121
3025
7921
10000
6084
1296
0
441
1024
1681
2116
2401
3364
4489
3249
529
484
4489
9409
9025
4225
529
36
529
1156
1849
2304
2601
3844
4761
2916
256
900
5476
9409
8100
3364
361
49
529
1225
2025
2304
2704
4096
4489
2116
25
1444
6084
10000
7921
2601
121
196
841
1521
2116
2500
3136
4489
3969
1156
100
3249
8464
10201
6084
1296
1
361
1024
1849
2304
2704
3844
4900
3249
576
441
4624
9604
9604
4489
576
25
484
1225
1849
2209
2500
3969
5041
3025
289
841
5476
10201
8836
3364
289
100
729
1521
2116
2304
2601
3844
4096
1849
9
1764
6561
10201
7744
2401
100
196
961
1849
2209
2209
3025
4356
3844
1089
121
3481
8649
10201
5929
1225
0
441
1225
1936
2401
2704
3844
4900
3249
441
576
4900
9801
9216
4096
529
36
484
1225
1849
2116
2500
3721
4900
2916
225
900
5476
10000
8649
3136
196
121
676
1296
1936
2304
2916
4356
4356
1444
25
2304
7225
10000
6889
1936
25
256
1024
1936
2304
2500
3249
4489
3364
676
361
4225
9409
9801
5041
729
25
529
1225
1936
2209
2500
3844
4900
3249
361
676
5184
9801
9025
3844
400
49
576
1369
1849
2209
2809
3969
4356
2116
64
1369
6084
10000
7921
2601
121
144
784
1444
2025
2304
2916
4225
3844
1225
36
2704
7744
10000
6400
1521
1
361
1024
1764
2304
2401
3364
4489
3481
729
324
4225
9409
9801
4900
676
25
484
1089
1764
2304
2601
3969
5184
3136
324
784
5184
9801
9025
3721
324
81
576
1296
2116
2401
2500
3721
4356
2116
49
1369
5929
9801
7921
2704
144
169
784
1521
2116
2304
2916
4096
3969
1296
36
2401
7396
10000
6561
1600
9
324
961
1764
2304
2500
3136
4356
3600
784
256
3969
9025
10000
5184
841
9
529
1089
1764
2304
2601
3481
4356
2916
441
529
4624
9409
8836
3844
400
64
529
1089
1764
2025
2500
3844
4624
2500
121
1156
5776
10000
7744
2500
121
169
676
1369
1936
2304
2809
3969
3844
1369
25
2500
7225
9801
6400
1600
16
289
961
1936
2209
2304
3136
4356
3364
729
225
3721
8649
9409
5041
900
9
441
1089
1849
2116
2401
3481
4624
3136
484
529
4624
9409
9025
3969
400
49
484
1225
1936
2209
2401
3600
4624
2601
196
961
5476
9801
8464
3249
289
121
784
1521
1936
2209
2601
3844
4356
1936
9
1849
6561
9801
7744
2601
121
196
900
1681
2304
2500
3136
4356
3844
1089
81
3136
8281
10201
6241
1296
0
400
961
1764
2304
2500
3364
4624
3481
729
324
4096
9025
9801
4900
784
9
441
1024
1764
2025
2500
4096
5929
4624
900
441
5329
11025
11025
5476
1024
0
441
1225
2025
2500
3025
4761
5776
3364
361
784
6084
12100
10816
4356
441
49
625
1600
2500
2916
3844
5929
5776
2401
1
2500
8836
13225
9604
3025
196
121
961
2116
2704
3025
4356
6561
5329
1600
100
4356
11236
12544
6724
1369
4
361
1089
1849
2401
3249
5329
6889
4489
625
729
5776
11449
10404
4356
625
1
400
1296
2025
2401
3136
5184
5776
2809
100
1600
7225
12321
9604
3136
196
144
784
1681
2401
2809
4096
5929
4900
1369
144
4356
10816
12100
6561
1296
4
324
1156
2116
2704
3481
5329
7056
4489
676
676
6241
12321
11236
5041
784
0
361
1369
2304
2601
3136
5329
6400
3481
256
1225
7056
12100
9604
3364
400
25
529
1444
2304
2601
3721
5476
5329
1936
16
3249
9604
12321
7569
1849
25
324
1089
2025
2500
2916
4489
6400
4761
1024
361
5476
11881
11664
5476
841
1
441
1225
2116
2601
3136
5476
7396
4356
361
1225
7225
12996
11236
4489
576
25
576
1444
2209
2704
3969
6084
6084
2304
0
2601
8649
12321
8836
2601
169
144
841
1849
2500
2916
4489
6889
5776
1600
144
4489
11025
12544
6889
1369
4
324
1156
2116
2704
3364
5476
7056
4624
625
784
5929
11881
11236
4900
841
1
289
1089
2025
2704
3844
5929
6889
3600
225
1369
7056
12544
10404
3844
400
36
576
1521
2209
2601
3969
6084
5625
2025
9
3249
9801
12100
7744
1936
81
144
784
1681
2209
3025
5041
6889
5329
1296
225
4761
10816
11449
5776
1089
9
196
1089
2401
2916
3481
5476
6889
4096
400
961
6561
12544
11449
4624
625
9
484
1369
2304
2916
4225
6561
6724
2809
25
2401
8836
12996
9801
3249
289
49
625
1600
2500
3136
4761
6724
5776
1849
36
3721
10201
12321
7225
1764
49
169
900
2025
2601
3136
4900
7056
5329
1089
400
5329
11881
11664
5476
961
4
256
1024
1936
2601
3844
6084
6561
3600
289
1156
6724
12544
11236
4624
576
49
841
2116
2809
2704
3600
5329
5329
2025
1
2916
9409
12769
8464
2209
100
100
676
1600
2304
3025
5476
8281
5929
1369
196
4761
11025
11664
5929
1225
9
225
900
1764
2401
3249
5625
7396
4900
676
676
6084
12321
11449
5329
900
0
324
1156
2025
2500
3721
6241
6724
3136
100
1681
7396
12321
10404
3721
441
36
676
1681
2401
3025
4761
7396
6400
1936
64
3844
10609
12544
7225
1849
100
121
729
1849
2601
3481
5929
8100
5041
900
400
5184
11664
11664
5329
961
9
225
961
1849
2401
3249
5476
7056
4225
441
900
6084
11664
10609
4489
729
0
400
1296
2116
2704
3969
6241
6241
2704
16
2304
8649
12769
9409
3136
289
81
784
1764
2500
3025
4900
7396
5929
1849
64
3969
10404
12100
7396
1849
81
144
841
1849
2401
3364
5776
7744
5476
1024
400
5625
12321
11449
4900
961
16
196
900
1849
2401
3600
6084
7056
3844
289
1225
6889
12321
10404
3844
484
9
484
1369
2209
2809
4225
6561
6241
2500
1
3249
10000
12544
7921
2304
121
100
729
1681
2601
3481
5476
7396
5476
1369
225
4900
11236
11449
5776
1225
49
169
900
1764
2500
3969
6241
7225
3844
400
900
6241
12100
10816
4356
676
0
289
1156
1936
2500
3844
6400
6561
3025
64
2401
8836
12769
8836
2601
196
81
676
1600
2401
3025
4761
6724
5476
1600
81
3844
10404
12100
6889
1369
9
144
729
1521
2209
3025
5476
7569
5329
784
841
5929
9604
8649
4356
900
9
121
529
1225
1936
2809
4624
6084
3969
625
361
3844
8281
8464
4489
1225
100
100
784
1681
2304
3364
5184
5776
3025
256
784
4900
8836
7744
3481
900
49
169
900
1849
2601
3721
5476
5476
2500
49
1600
6084
9025
6561
2401
529
16
196
961
1849
2500
4096
5929
5184
2025
0
2209
6724
8836
5929
2116
361
0
324
1089
1764
2401
3969
6084
5041
1444
36
2601
7056
8464
5329
1764
225
25
529
1225
1849
2601
4489
6084
4489
961
196
3600
8281
8836
4900
1521
169
64
784
1849
2500
3136
4761
5776
3364
441
484
4356
8836
8649
4225
1156
81
121
841
1764
2401
3721
5929
6084
2809
144
1225
5776
9216
7396
3136
625
9
196
961
1764
2304
3721
5625
5476
2401
49
1600
6561
9409
6724
2304
400
0
289
1089
1936
2500
3969
5929
4900
1681
4
2601
7396
9025
5625
1764
225
36
625
1225
1521
2401
4489
6400
4900
1225
121
3600
8836
9604
5329
1444
121
49
676
1681
2209
3136
5329
6889
4356
729
484
4900
10609
10404
5184
1296
81
169
1024
2116
2916
4225
6561
6724
3136
100
1681
7225
11025
8464
3136
441
1
324
1089
2209
3249
4624
6561
5476
1764
4
2601
8281
10816
7225
2401
324
16
529
1600
2401
3249
5329
7396
5625
1369
144
4096
9801
10816
5929
1764
169
81
841
1849
2601
3600
5776
6889
4225
529
676
5476
10816
10000
4624
1156
81
169
1296
2500
2809
3969
6241
6241
2704
25
2025
7569
10816
7921
3025
484
1
441
1444
2304
3136
4761
6724
5776
1936
16
3136
8649
10201
6561
2401
400
9
625
1521
2209
3025
5184
7569
5476
1369
169
3969
9409
10201
5776
1681
196
49
729
1764
2500
3600
5776
7056
4225
576
576
5184
10609
10201
4900
1225
49
169
961
2025
2916
4489
6889
6561
2809
36
2116
8100
11025
7569
2809
484
0
324
1296
2209
3025
4761
6889
6084
2116
1
2916
8649
10816
6889
2209
324
9
484
1521
2401
3136
5041
6889
5329
1444
121
3844
9801
10404
5929
1764
196
100
961
1936
2500
3481
5625
6561
3844
576
625
5476
11236
10404
4761
1024
25
256
1225
2209
2916
4356
6724
6400
2601
16
2304
8100
11236
7744
2704
441
1
400
1296
2209
3136
4900
7056
6084
2116
16
3364
9409
10816
6561
2025
196
49
529
1444
2116
3025
5184
7225
4900
1089
256
4225
9801
10201
5329
1369
144
81
900
2116
2704
3600
5776
6400
3481
289
961
6084
11025
9604
3844
625
9
196
961
2025
2809
4225
6400
6724
3025
81
1681
7225
11236
8836
3364
576
0
361
1296
2209
3025
4489
6889
6084
2209
1
2916
8836
10816
7225
2304
324
16
484
1521
2304
3136
5329
7396
5625
1444
100
3600
9025
10404
6084
1849
196
36
625
1521
2500
3844
5776
6724
3969
529
576
5041
10404
9801
4761
1089
36
225
1089
2025
2601
4096
6400
6400
2916
64
1936
7744
11236
8281
2916
441
1
361
1296
2116
2916
4761
7056
6084
2116
1
3025
9409
10816
5929
1849
324
0
400
1369
2209
3025
5041
7225
5476
1521
100
3721
9604
10609
5929
1681
144
64
729
1600
2401
3600
5776
7056
4225
529
625
5184
10404
10000
5041
1296
64
196
1089
2025
2704
4356
6724
6724
2916
49
2025
7744
11236
8464
3249
576
0
400
1296
2209
3136
4900
7396
6561
2304
1
3025
8836
11025
7056
2401
361
4
576
1600
2304
3025
5041
7225
5625
1600
100
3844
9801
10609
6084
1764
169
49
676
1764
2601
3600
5776
7225
4225
529
625
5329
11025
10201
5041
1225
36
256
1089
2025
2916
4489
6724
6561
2916
64
1849
7569
11449
8836
3364
576
0
400
1369
2209
2916
4900
7225
6400
2304
0
2916
8836
11449
7225
2209
289
16
484
1296
2116
3136
5329
7396
5776
1600
81
3844
9801
10609
5929
1764
196
49
676
1764
2601
3481
5476
6889
4225
625
529
5184
10609
9801
4624
1156
64
144
1024
2025
2704
4096
6561
6889
3136
81
1764
7569
11449
8649
3136
529
0
324
1225
2209
2916
4624
6889
6084
2601
16
2601
8836
11449
7396
2304
324
1
361
1296
2401
3249
5329
7396
5776
1681
49
3600
9409
10609
6400
2025
256
36
625
1600
2401
3364
5476
6889
4761
900
361
4761
10609
10609
5329
1296
64
169
961
1936
2601
4225
6724
7056
3364
169
1521
7225
11449
9216
3721
729
9
324
1369
2209
2916
4761
7396
6561
2401
1
2704
8464
11236
7569
2500
361
1
441
1369
2209
3025
4900
7225
6084
1849
25
3364
9025
10609
6400
2025
225
36
576
1444
2304
3364
5476
7056
4761
841
400
4761
10000
9801
5184
1521
100
144
1024
2025
2809
3969
6241
6561
3364
144
1600
7225
11449
9025
3600
625
0
324
1296
2209
2916
4761
7056
6241
2304
0
2809
8836
11236
7225
2401
361
4
441
1369
2209
3136
5184
7225
5776
1764
36
3481
9025
10609
6400
2025
225
36
625
1681
2401
3364
5476
6889
4624
841
361
4624
10201
10404
5329
1296
64
144
900
1936
2704
3844
6241
6889
3721
225
1521
7225
11664
9216
3481
576
0
324
1089
2025
2916
4761
7225
6724
2601
4
2601
8281
11236
7921
2809
441
0
400
1444
2401
3025
4761
6889
5625
1936
4
3136
8836
10816
6561
2025
256
25
576
1444
2209
3136
5184
7225
5184
1156
225
4356
10404
10609
5625
1444
81
144
961
2025
2704
3969
6241
6889
3600
196
1369
6724
11236
9216
3969
784
9
289
1225
2209
3025
4624
7056
6561
2809
16
2601
8649
11664
7744
2601
400
0
400
1296
2209
3136
5041
7225
5929
1936
16
3249
9025
10404
6241
1936
256
25
529
1444
2209
3136
5476
7225
4761
900
289
4356
9801
10201
5329
1444
81
121
900
1936
2704
3844
6084
6561
3481
256
1089
6084
11025
9604
4225
841
4
324
1225
2025
2704
4356
6889
6724
2916
16
2401
8464
11449
8100
2916
441
1
441
1444
2209
3025
4900
7396
6241
1936
25
3364
9216
10816
6561
2025
225
49
576
1369
2116
3136
5476
7225
5041
1024
289
4225
9409
10000
5476
1521
121
121
961
2025
2601
3600
5929
6889
3600
225
1296
6561
11025
9025
3721
729
4
289
1156
2116
2916
4489
6889
6400
2500
4
2500
8464
11025
7569
2704
400
1
441
1296
2116
3025
5041
7396
6084
1936
25
3364
9216
10816
6724
2025
196
49
625
1600
2401
3249
5329
7056
4900
961
256
4356
10000
10609
5625
1521
81
169
900
1764
2500
3844
6241
7056
3721
289
1024
6241
11236
9801
4096
841
9
256
1089
2025
2809
4489
6724
6400
2809
36
2304
8464
11664
8281
2809
324
4
361
1225
2116
3025
5041
7396
6241
1936
16
3025
8836
10816
6724
2116
256
25
529
1521
2304
3249
5329
7056
4900
1024
256
4356
10000
10201
5184
1369
81
169
961
1849
2500
3721
6084
6561
3364
169
1369
6889
11236
9025
3600
729
4
324
1225
2116
2809
4356
6889
6724
2704
9
2500
8281
11025
7921
2809
441
4
441
1369
2209
3136
5041
7225
5929
1849
16
3249
8836
10816
6561
2116
256
25
576
1521
2304
3136
5184
7056
4900
1089
225
4225
10000
10609
5476
1444
81
144
961
1936
2601
3844
6084
6561
3600
256
1225
6561
11236
9216
3969
784
9
289
1225
2209
2916
4489
6724
6241
2601
9
2401
8281
11025
7744
2916
400
9
484
1296
2025
2809
4761
7225
6084
2025
9
3136
8836
10609
6561
2116
256
25
529
1444
2209
3136
5329
7225
5184
1156
196
4356
10201
10404
5329
1444
121
100
900
1936
2601
3844
6084
6561
3481
256
1225
6724
11236
9409
3844
729
1
289
1225
2209
3025
4489
6724
6241
2601
16
2304
8100
11236
7744
2601
400
1
400
1296
2116
2916
4900
7225
5929
1936
9
3249
9216
11025
6724
2116
225
36
576
1444
2209
3249
5476
7396
5041
1089
256
4356
10000
10404
5476
1521
64
196
961
1764
2500
3721
6084
6889
3481
196
1369
6889
11025
8836
3844
784
4
289
1156
2116
2916
4624
6889
6561
2601
16
2401
8281
11236
7744
2809
400
1
484
1369
2209
3025
5041
7569
6084
1849
25
3249
9216
10609
6400
2025
256
16
576
1600
2209
3025
5329
7396
4900
841
361
4624
10201
10201
5184
1296
81
121
961
2116
2704
3721
5929
6724
3481
196
1296
6724
11025
8836
3721
676
4
289
1296
2304
3136
4624
6561
6084
2401
1
2500
8281
11025
7569
2601
361
4
400
1296
2116
3025
5041
7396
6084
1936
16
3249
9216
10816
6561
2025
289
25
625
1521
2209
3249
5776
7396
4900
900
324
4624
10000
10404
5329
1444
100
121
1024
2025
2809
3969
6400
6561
3136
100
1764
7396
10816
8100
3249
625
1
324
1225
2209
2916
4624
7056
6241
2304
0
2601
8281
10816
7569
2500
361
9
484
1444
2116
2916
5041
7569
6084
1764
64
3600
9409
10816
6400
1936
196
25
576
1681
2704
3481
5329
6724
4489
784
400
4624
10000
10201
5041
1296
81
196
1089
2025
2601
3844
6084
6400
3136
121
1681
7056
10816
8464
3364
625
1
324
1225
2209
3025
4761
7225
6400
2401
4
2601
8836
11664
7744
2601
361
9
441
1296
2116
3025
5041
7396
5929
1681
25
3136
8836
10609
6241
2025
256
25
625
1600
2209
3136
5776
7396
4624
784
400
4761
10609
10404
5184
1369
81
256
1225
2025
2500
3721
6241
6724
3249
121
1764
7569
11664
8649
3249
484
1
361
1296
2116
3025
4761
6889
6241
2500
0
2809
8649
11236
7396
2601
361
9
441
1296
2025
3025
5184
7569
5929
1764
36
3600
9216
10201
6084
2025
289
25
625
1600
2401
3364
5476
6889
4624
900
324
4489
10201
10201
5329
1369
81
169
961
1849
2500
3969
6561
6889
3249
169
1521
7056
11664
9604
3721
529
0
361
1296
2209
2916
4624
7056
6241
2304
1
2304
8100
11025
7744
2704
441
1
441
1444
2209
2916
5041
7225
5929
1849
16
3364
9409
10816
6400
2025
225
64
729
1600
2209
3136
5329
6889
4761
961
289
4624
10201
10609
5476
1369
100
169
1156
2209
2601
3721
6084
6561
3249
121
1764
7744
11449
8649
3249
576
0
400
1369
2304
3249
5329
7056
5929
2209
0
2809
9025
11449
7396
2401
361
1
361
1296
2401
3249
5184
7225
5625
1600
64
3600
9216
10000
5929
1764
196
49
625
1521
2209
3249
5625
7225
4489
729
484
4900
10609
10201
5041
1225
64
196
1089
2209
2916
4096
6241
6724
3249
81
1936
7921
11664
8649
3025
529
1
324
1225
2209
3136
4900
7056
6084
2401
0
2704
8464
11025
7396
2500
361
4
441
1369
2116
2916
4900
7056
5776
1849
25
3364
9409
10609
6084
1764
196
25
576
1521
2304
3249
5476
6889
4624
841
324
4624
10609
10609
5329
1369
64
256
1156
2025
2500
3600
6084
6724
3481
169
1521
7225
11449
9409
3721
625
1
361
1296
2025
2704
4761
7225
6400
2304
1
2500
8464
11236
7569
2601
441
1
441
1444
2304
3025
4900
7056
5929
1936
49
3600
9409
10816
6241
1936
225
25
576
1681
2500
3481
5476
7056
4761
841
361
4624
10000
10404
5329
1369
64
169
961
1936
2809
3844
6084
6724
3481
169
1521
7225
11449
9216
3600
625
0
324
1296
2209
2809
4624
6889
6561
2601
16
2401
8281
11449
7921
2704
441
0
400
1444
2401
3025
4761
7056
5929
1849
25
3249
9216
10609
6241
1936
225
36
529
1521
2304
3364
5476
7056
4761
900
324
4624
10201
10201
5329
1369
100
100
961
2304
3136
4225
6084
6400
3025
100
1681
7056
11236
8649
3364
625
0
289
1225
2209
3025
4761
7056
6241
2304
1
2601
8464
11236
7225
2304
400
0
361
1369
2304
3025
5041
7225
5929
1849
36
3364
9216
10609
6400
2025
256
36
625
1521
2304
3364
5625
7225
4624
841
324
4356
10000
10404
5329
1444
81
144
961
1936
2601
3844
6241
6561
3481
196
1369
6889
11025
9025
3844
784
16
256
1296
2401
3136
4489
6889
6400
2601
9
2601
8836
11236
7569
2601
484
1
529
1444
2209
3249
5041
7056
5625
1849
25
3136
8281
10000
6400
2209
324
25
676
1444
2025
3025
5776
7921
5184
900
324
4624
10201
10609
5625
1681
196
100
1156
2401
3136
4624
6724
5776
2209
25
1936
7056
9604
7056
3249
784
36
256
1369
2401
3364
5476
7225
5776
2025
0
2601
8100
11025
7744
2500
225
9
324
961
1681
2916
5476
7744
6561
2209
25
3364
9216
11025
6889
1849
81
49
400
1156
2025
3136
5329
7056
5041
1089
225
4624
10404
10201
5184
1444
100
121
841
1936
2809
4225
6561
6889
3481
225
1444
7569
12769
10000
3844
484
25
484
1296
2025
2809
4761
7744
7225
2209
64
3600
9216
11881
7744
2209
169
81
676
1600
2401
3364
5625
7056
4489
1369
1
3249
11025
12769
6400
1369
25
196
841
1681
2304
3364
5776
6724
3721
361
900
6241
12321
10816
4489
676
4
484
1444
2304
2809
4225
6561
6561
2704
9
2500
9025
13456
10000
3249
289
121
841
1681
2401
3481
5776
7921
6241
1764
81
4225
11025
12769
7056
1764
100
81
729
1764
2704
3721
5929
7744
5329
961
400
5476
12100
11881
5476
1089
9
289
1089
1764
2401
3721
6241
6889
3481
196
1444
7569
12544
10201
3721
400
49
676
1521
2116
2809
4761
7396
6241
2025
49
3969
10816
12769
7225
1681
49
121
729
1600
2500
3364
5929
8100
5625
1296
225
5041
12321
12769
6241
1296
25
196
900
2025
2916
4096
6561
6724
3025
361
625
6084
12321
10404
4489
900
1
400
1444
2209
2916
4356
6724
7056
3136
0
3844
11025
13456
8464
2304
100
169
900
1681
1849
3136
6561
8649
6084
1444
361
5625
12321
11664
6084
1521
1
400
784
1681
2601
3600
5184
6241
4624
1225
484
6724
12321
10816
4761
900
4
324
1156
1936
2601
3969
6724
6889
2916
36
2209
8649
12769
9025
2916
225
81
729
1681
2304
2809
4356
6724
5776
1936
36
3969
10609
12321
6724
1521
64
100
676
1521
2304
3600
6561
8281
5184
1024
361
5329
12100
12321
6084
1156
9
256
1024
1936
2704
4225
6561
7225
3721
196
1600
7921
12996
10404
3844
576
9
784
2025
2304
2500
3969
6724
6400
2500
0
3136
10000
12996
8281
2209
144
121
729
1521
2401
3481
5625
7921
5476
1156
289
5041
10816
10609
5776
1369
36
196
961
1849
2601
3844
6241
7225
4096
400
1024
6724
12769
11449
4489
576
25
484
1296
2025
2601
4225
6724
6724
2809
0
3249
10000
12996
8464
2401
144
121
841
1369
2025
4356
7225
7396
4900
1225
225
4761
11449
12100
6084
1225
9
225
1024
1849
2304
3481
5929
7225
4356
484
900
6561
12321
11025
4489
676
1
400
1225
2025
2601
4096
6561
6561
2916
25
2500
9216
12996
8836
2704
169
100
676
1681
2500
3249
5184
7396
6084
1681
169
4900
11664
12544
6400
1156
4
169
784
1600
2500
3481
5929
7744
5041
784
529
5929
12544
12100
5476
1024
9
225
1024
1936
2601
3969
6724
7396
3721
169
1764
8100
12544
9604
3600
529
16
625
1521
2209
2704
4489
7225
6724
2401
16
3600
10609
13225
8281
2116
121
144
900
1849
2601
3481
5929
8281
5776
1156
441
5476
12100
12321
6084
1296
25
225
1089
2025
2704
4096
6400
7225
3844
225
1369
7396
12769
10816
4225
529
25
576
1600
2209
2704
4356
6889
6241
2304
4
3600
10816
12996
7921
1936
64
121
784
1764
2401
3025
5476
8100
6084
1444
256
5329
12100
12100
5929
1369
36
225
1024
2025
2809
3969
6400
7396
3844
324
1225
7396
13225
11236
4489
529
25
441
1156
1936
3136
5476
7744
6724
2209
16
3600
10404
12769
7921
2116
100
121
729
1600
2500
3481
5929
8100
5929
1296
289
5329
12100
12321
5929
1296
25
256
1089
1936
2500
3844
6400
7396
3844
289
1296
7744
13456
10816
3969
484
16
529
1521
2401
2809
4489
6889
6400
2209
9
3481
10404
12996
7744
2025
100
100
784
1849
2601
3364
5625
7921
5929
1296
289
5184
11881
12321
6084
1369
49
169
1024
2025
2704
3969
6561
7744
4096
289
1296
7396
12996
10816
4096
576
9
441
1296
2025
2601
4356
7056
7056
2704
0
3364
10201
12996
8100
2304
121
100
729
1681
2401
3249
5476
7744
5929
1600
169
4761
11664
12544
6400
1369
36
169
1024
2209
2809
3600
5929
7056
4225
400
1024
6889
12544
10609
4356
676
0
324
1444
2500
2809
3969
6561
6561
2704
1
2916
9409
12769
9025
2704
196
100
784
1849
2601
3136
4761
7056
5929
1764
81
4096
10816
12100
6561
1444
49
169
784
1681
2500
3481
5929
7569
4900
784
576
5776
12321
12100
5625
1024
1
324
1089
1936
2809
4225
6724
7396
3481
100
1764
7921
12769
10201
3721
484
36
676
1600
2304
3025
4761
7056
6084
2025
16
3844
11025
13225
7744
1849
49
196
841
1764
2401
3249
5625
8100
5929
1156
400
5476
12321
12100
5776
1156
16
256
1024
1849
2401
3969
6889
7396
3481
169
1681
8100
12996
9801
3481
400
25
576
1521
2304
2809
4624
7225
6561
2304
16
3969
10816
12769
7569
1849
64
100
676
1681
2704
3721
5929
7921
5776
1225
324
5329
12321
12321
6084
1225
25
256
1156
2116
2601
3844
6400
7225
3844
225
1444
7056
11881
10404
4225
576
25
529
1296
2025
2704
4489
7225
6400
2209
9
3481
10404
13225
7744
1849
81
100
676
1600
2401
3249
5776
8100
5929
1369
196
4900
12321
13225
5625
841
4
144
676
1369
2025
4096
7744
8464
4225
400
841
6561
12769
11664
5329
1024
4
576
1849
2304
2304
3249
5625
7225
4096
121
2500
9409
13456
9216
2809
225
49
625
1600
2401
3025
5041
7396
6241
1849
64
4225
11025
12544
7056
1764
49
225
900
1681
2304
3249
5776
8649
5776
900
576
5776
12544
12100
5625
1024
4
289
1089
1936
2601
3844
6400
7225
3844
256
1444
7569
13225
10609
3844
529
25
625
1444
2209
3025
5041
7056
6084
2116
25
3969
11025
12996
7569
1764
49
169
900
1849
2500
3364
5776
7744
5329
1225
289
5329
12321
12544
5929
1225
16
256
1089
2116
2916
4096
6561
7225
3600
169
1681
7744
12544
10000
3844
529
9
441
1369
2209
3025
5041
7569
6400
2116
16
3600
10609
12996
7569
1764
64
100
676
1681
2401
3364
5476
7569
5776
1444
256
5476
12544
12544
5929
1156
9
256
1156
2025
2500
3969
6084
6561
4096
676
961
7744
13689
11236
4489
676
1
441
1369
2209
2809
4225
6724
6889
3136
25
2704
9604
13456
9216
2809
196
81
676
1681
2401
3136
5041
7396
6084
1849
64
4225
11236
12769
7056
1681
49
169
841
1681
2500
3600
5929
7921
5329
961
484
5929
12544
12100
5625
1156
9
289
1156
2116
2704
3844
6400
7225
3721
225
1369
7744
13225
10404
3844
484
9
529
1600
2304
2916
4489
7056
6400
2304
9
3481
10404
12996
8100
2116
121
100
729
1764
2500
3364
5476
7569
5929
1444
225
5041
11881
12321
6084
1156
4
256
900
1681
2401
3844
6400
7569
4225
400
1024
6724
12769
11449
4624
676
1
441
1369
2209
2809
4225
6889
6724
2704
1
2916
9801
13225
8836
2704
225
100
784
1764
2401
3025
4900
7396
6241
1849
64
4225
11025
12321
6724
1521
36
169
841
1681
2401
3364
5625
7569
5184
841
529
5776
12321
11881
5476
1024
1
324
1156
1936
2601
3721
6241
6889
3364
196
1444
7744
12996
10404
3481
361
36
484
1444
2209
2809
4761
7225
6241
2025
25
3844
10609
12769
7396
1849
81
121
784
1764
2601
3481
5476
7744
5776
1296
324
5476
12100
12100
5929
1225
16
225
1024
2025
2601
3844
6241
7225
3969
361
1296
7569
12769
10000
3969
625
0
400
1369
2304
2916
4489
6889
6400
2401
1
3249
10000
12769
8100
2209
121
121
729
1764
2601
3364
5329
7569
5776
1444
225
4900
11449
11881
6084
1369
49
196
961
1936
2601
3721
6084
7396
4356
484
900
6561
12769
11025
4489
729
0
361
1225
2025
2601
4096
6561
6724
2916
25
2401
9025
12769
9216
2704
169
64
576
1521
2401
3136
5041
7225
6084
1849
64
3969
11025
12544
6889
1600
49
144
784
1849
2601
3481
5625
7744
5184
841
576
5625
11664
11664
5776
1225
16
256
1156
1936
2601
3969
6561
7569
3721
196
1600
7921
13225
10404
3721
400
16
484
1369
2304
3025
4624
7056
6241
2116
16
3844
10816
12769
7225
1764
81
169
900
1600
2209
3364
6084
8100
5476
1156
361
5329
11881
12100
5776
1156
16
225
1089
2116
2704
3844
5929
6889
3600
196
1444
7569
12769
10404
3721
324
36
484
1225
2116
2809
4624
6889
6084
2116
16
3600
10609
12769
7396
1681
64
169
900
1764
2401
3136
5476
7569
5476
1156
324
5184
11664
11664
5625
1156
16
225
1024
1936
2601
3969
6241
6724
3481
225
1369
7569
12769
10404
3600
361
36
576
1444
2116
2601
4489
7056
6241
2025
25
3844
10609
12544
7396
1681
49
169
784
1681
2401
3249
5929
8100
5329
1024
400
5184
11881
11881
5625
1156
16
256
961
1849
2601
3844
6241
7056
3721
256
1296
7225
12769
10404
3969
484
25
529
1521
2116
2809
4489
7056
6400
2209
16
3721
10816
12996
7396
1764
100
81
841
1849
2601
3249
5476
7744
5625
1369
196
5041
12100
12321
6084
1225
16
256
1024
1849
2601
3969
6561
7396
3721
225
1369
7569
12769
10609
3969
529
9
484
1444
2209
2809
4356
7056
6400
2304
9
3249
9604
12769
8649
2116
49
169
676
1521
2304
2916
5041
7569
6084
1600
144
4489
11236
12100
6241
1296
25
196
961
1849
2601
3600
5929
7225
4356
529
729
5929
12321
11664
5041
900
0
400
1225
1849
2601
4225
6561
6400
2916
81
1681
7744
12321
9801
3364
324
36
576
1444
2116
2916
4489
7056
6241
2209
9
3481
10201
12544
7569
1936
81
121
729
1600
2304
3025
5184
7569
5776
1296
256
4761
11449
11664
5625
1156
16
225
961
1849
2401
3600
6084
7056
3844
289
1089
6724
12100
10404
4225
625
1
484
1369
2116
2601
3969
6400
6241
2500
1
2809
9216
12321
8281
2401
169
100
676
1600
2401
3136
4900
6724
5929
2025
64
4489
11025
12100
6400
1369
25
169
841
1681
2401
3249
5776
7396
4761
784
576
5625
11881
11236
5041
900
9
225
1024
1936
2704
3721
6084
6724
3364
144
1521
7569
12321
9801
3481
361
16
529
1369
2116
2809
4356
6889
6241
2209
9
3600
10404
12769
7569
1936
81
144
784
1681
2304
3136
5329
7569
5625
1444
196
4900
11449
11664
5625
1089
9
225
961
1849
2304
3364
5625
6889
3969
361
961
6400
11881
10201
4096
625
1
361
1225
2025
2500
3721
6241
6400
2809
25
2304
8464
12321
8836
2809
225
64
625
1521
2304
2916
4761
7056
5929
1849
49
3969
10609
12321
6724
1600
64
121
784
1681
2401
3364
5476
7396
4761
729
289
4096
10816
11664
5929
1156
16
225
961
1849
2500
3721
6241
6889
3600
196
1369
7396
12321
9801
3600
441
16
441
1296
2116
2704
4225
6561
5929
2209
4
3249
9604
12100
7744
2116
121
121
729
1681
2401
3136
5184
7569
5625
1444
144
4489
11236
11881
5929
1296
25
196
900
1764
2401
3481
5776
7225
4225
484
784
6084
11881
10816
4624
784
0
324
1089
1936
2601
3844
6084
6561
2916
64
2025
8281
12544
9025
2916
256
64
625
1521
2304
2916
4624
6889
5929
1936
49
3969
10609
12100
6889
1600
49
169
841
1681
2304
3249
5776
7744
5329
1024
361
5476
12100
11664
5476
1024
9
256
1024
1849
2500
3600
6241
6889
3481
169
1521
7225
12321
9801
3600
441
16
484
1369
2116
2704
4356
7225
6561
2025
49
3844
10404
12100
7225
1849
64
169
784
1681
2304
3136
5476
7744
5625
1296
256
5041
11664
12100
5929
1225
16
225
1024
1936
2601
3844
6241
7225
3721
256
1225
7225
12544
10404
3844
576
1
441
1444
2304
2809
4225
6724
6241
2401
0
3249
10404
13225
7744
1936
100
100
676
1681
2500
3481
5476
7569
5776
1369
225
4900
11664
12100
5929
1225
16
225
961
1936
2500
3600
6084
7225
4225
441
961
6724
12769
11449
4761
676
4
361
1156
2025
2704
4096
6724
6889
3025
36
2401
9025
12996
9025
2916
225
64
676
1600
2304
3025
5041
7569
6084
1849
100
4096
10404
12100
6889
1600
64
121
841
1764
2500
3481
5776
7569
5041
900
441
5625
12100
11881
5476
1024
4
289
1024
1936
2500
3721
6241
7056
3600
169
1681
7921
12996
9801
3481
361
25
529
1444
2304
2809
4489
6889
6241
2304
4
3600
10404
12769
7744
2025
100
100
784
1764
2500
3364
5329
7921
6241
1521
324
5625
11664
11449
5929
1369
49
196
1024
2025
2601
3844
6241
7225
3844
289
1296
7225
12769
10816
4096
529
9
529
1369
2209
2916
4489
6889
6241
2401
0
3136
9801
12996
8281
2304
144
121
729
1681
2401
3136
5184
7569
5929
1849
121
4624
11449
12100
6241
1369
36
169
900
1849
2500
3481
5929
7396
4624
576
729
6241
12769
11664
5041
729
0
361
1089
2025
2704
3969
6561
6889
3249
81
1936
8281
12996
9801
3481
361
49
729
1521
2304
2916
4624
7056
6241
2116
16
3721
10816
13225
7744
1681
16
169
676
1600
2304
3249
5625
7744
5625
1225
225
5041
12100
12321
5776
1156
9
256
1024
1849
2500
3600
6241
7225
3969
289
1225
7225
12544
10609
3969
529
4
484
1521
2209
2601
4096
6724
6724
2500
4
3481
10201
12769
7921
2116
121
121
784
1936
2500
3136
5476
7921
5776
1369
225
5184
11881
12321
5929
1225
16
225
1024
1936
2601
3721
6241
7225
3844
289
1089
6724
12321
10609
4225
625
9
484
1296
2025
2704
4225
6724
6400
2500
0
3136
9801
12996
8464
2304
121
81
676
1600
2401
3136
5184
7396
5929
1764
100
4225
11025
12321
6724
1444
25
196
900
1849
2401
3481
6084
7921
4761
576
676
5929
12544
12100
5476
900
0
324
1225
2025
2601
3969
6561
7056
3481
121
1764
8100
12996
9801
3481
400
25
529
1521
2304
2916
4489
7056
6561
2304
9
3600
10404
12769
7744
2025
100
121
784
1764
2500
3249
5625
7921
5776
1296
256
4900
11449
12100
6084
1369
49
196
1089
2025
2704
3969
6241
6889
3481
225
1296
7225
12769
10404
3969
484
16
529
1521
2209
2809
4356
6889
6241
2209
16
3721
10404
12769
7569
1936
81
144
841
1764
2401
3249
5476
7921
5625
1296
256
5041
11664
12100
5929
1156
16
196
900
2025
2916
3844
5929
7056
3721
256
1089
6400
12544
11025
4356
576
4
441
1296
2116
2809
4356
6889
6724
2704
4
2916
9604
13225
9025
2704
196
100
729
1764
2500
3136
5184
7569
6084
1764
100
4225
11025
12100
6561
1444
49
169
841
1764
2500
3481
5929
7744
4761
729
729
6241
12544
11664
5041
841
0
361
1156
2025
2601
3969
6400
7056
3364
121
1681
8100
13456
10201
3364
289
64
625
1521
2209
2809
4624
7225
6241
2025
49
4096
11025
12769
7396
1681
49
169
841
1764
2601
3481
5776
8100
5625
1156
361
5625
12321
12321
5929
1225
16
256
1089
1936
2601
3969
6561
7225
3721
196
1600
7921
12769
10000
3481
400
25
529
1521
2209
2916
4761
7225
6084
2025
36
3969
10609
12321
7056
1681
81
121
784
1681
2401
3249
5476
7744
5625
1225
289
5329
12100
12100
5625
1024
1
289
1024
1849
2500
3721
6241
7056
3600
196
1444
7396
12544
10404
3721
484
16
529
1444
2304
2916
4624
7056
6241
2025
25
3721
10404
12769
7396
1936
81
144
841
1681
2401
3249
5625
7744
5776
1296
256
5184
11664
12100
5929
1225
16
225
1024
1849
2601
3844
6241
7225
3844
256
1369
7225
12544
10609
4096
576
9
529
1369
2209
2809
4489
6889
6400
2401
1
3364
10000
12769
7921
2116
81
144
729
1600
2304
3025
5041
7569
5929
1600
144
4624
11236
12100
6241
1296
36
169
900
1849
2601
3600
5929
7396
4356
529
784
6400
12769
11664
4624
784
0
361
1156
2116
2809
4096
6561
6889
3136
64
2209
8649
12996
9801
3364
324
49
625
1600
2401
3025
4761
7056
6241
2025
25
3721
10609
12321
7225
1764
81
121
729
1681
2500
3481
5929
7921
5625
1156
361
5476
12100
11881
5625
1156
25
256
1089
2025
2601
3844
6400
7056
3481
169
1681
7921
12769
10000
3481
400
25
529
1521
2304
3025
4761
6889
5776
1936
49
3844
10816
12544
7056
1764
49
169
841
1764
2401
3364
5625
7569
5476
1089
324
5329
12321
12100
5625
1024
1
289
1024
1849
2500
3844
6561
7056
3600
196
1444
7569
12769
10404
3721
484
16
576
1444
2304
2916
4761
7225
6241
2116
25
3844
10816
12769
7396
1849
81
169
841
1764
2500
3481
5625
7921
5476
1225
289
5184
11664
11881
5929
1225
25
196
1024
2025
2809
3844
6241
7056
3721
225
1369
7396
12769
10201
3721
484
16
529
1296
2025
2704
4489
7225
6241
2209
9
3721
10404
12544
7569
2025
100
144
841
1849
2500
3249
5476
7921
5776
1296
289
5476
12321
11664
5184
1024
25
196
961
1849
2601
3721
6084
7225
3969
361
1089
6889
12769
10816
4356
625
4
441
1296
2116
2809
4225
6889
6561
2601
1
2916
9604
12769
8649
2601
169
100
729
1521
2304
3136
5184
7569
6241
1764
100
4356
11236
12321
6561
1444
36
225
900
1764
2401
3600
6084
7921
4624
576
784
6400
12321
11664
5041
900
1
324
1156
2025
2500
3969
6724
7225
3249
64
2025
8100
12544
9801
3249
256
100
676
1444
2116
2704
4489
6889
6241
2304
16
3844
10816
12996
7396
1764
64
144
784
1764
2500
3364
5625
7744
5476
1156
324
5184
12100
12100
5776
1156
16
256
1024
1849
2601
3969
6561
7056
3481
169
1600
7921
12769
10000
3600
400
36
676
1600
2209
2916
4624
7056
6084
2025
36
3844
10609
12544
7396
1764
64
144
841
1681
2401
3249
5625
7744
5329
1089
361
5329
11881
11881
5476
1024
9
256
1089
2025
2601
3600
6084
6889
3600
225
1369
7396
12544
10404
3721
484
16
484
1369
2209
3136
4900
7225
6241
2025
25
3844
10609
12769
7569
1936
121
144
900
1849
2601
3481
5625
7744
5476
1156
324
5329
12100
11881
5776
1089
9
289
1024
1936
2401
3721
6241
7056
3600
225
1369
7396
12544
10201
3721
484
9
484
1444
2116
2809
4489
6724
6241
2116
9
3481
10000
12544
7744
2116
121
144
841
1849
2500
3364
5625
7744
5625
1296
289
5184
11881
12100
5776
1225
16
225
1024
1936
2601
3844
6400
7225
3844
289
1296
7396
12996
10609
3969
576
4
441
1369
2304
2916
4356
6561
6241
2401
0
3136
9604
12769
8281
2304
144
100
729
1681
2304
3025
5041
7921
6400
1681
196
4761
11664
12321
6241
1296
25
196
961
1849
2500
3600
6241
7396
4225
400
900
6241
11881
11025
4900
841
0
361
1225
2025
2704
3969
6561
6889
3025
49
2209
8649
12769
9409
3136
324
49
625
1600
2401
3025
4900
7225
6241
2025
25
3844
10816
12769
7396
1764
81
144
900
1849
2401
3249
5625
7744
5476
1156
361
5625
12321
12100
5625
1089
9
256
961
1849
2601
3721
6084
7396
3969
289
1296
7396
12996
10404
3600
441
9
441
1296
2116
2601
4225
7056
6724
2500
4
3481
9801
12544
8281
2500
169
100
729
1764
2500
3364
5329
7744
5929
1521
196
4489
10816
11881
6241
1369
25
196
961
1849
2401
3481
5929
7396
4225
484
729
5776
12100
11664
5041
841
0
324
1225
2209
2809
3844
6241
6561
3136
81
2209
8836
12996
9604
3136
256
64
676
1600
2304
3025
4761
7225
6241
2025
36
3969
10816
12769
7225
1764
64
144
784
1764
2500
3249
5184
7225
5776
1521
289
5476
12321
12321
5776
1156
25
225
1089
2025
2500
3969
6724
7396
3600
196
1600
7921
12996
10201
3600
400
25
529
1444
2209
2916
4624
7056
6241
2116
16
3721
11025
13225
7396
1764
49
169
841
1681
2401
3364
5776
7744
5625
1156
361
5476
12100
12100
5929
1225
9
400
1156
1849
2304
3600
6241
7396
3844
256
1296
7225
12544
10609
4096
529
16
529
1369
2116
2809
4489
6889
6241
2304
4
3481
10404
12769
7921
2116
100
169
784
1764
2500
3364
5625
7921
5776
1369
225
5041
11881
12321
6084
1225
16
225
961
1849
2500
3721
6241
7225
4096
400
961
6724
12321
10816
4489
729
0
361
1225
2025
2601
4096
6561
6724
2916
16
2500
9025
12769
8836
2809
256
81
784
1764
2500
3025
4761
7056
5929
1849
36
3969
10609
12544
6889
1600
49
169
784
1764
2500
3481
5776
7569
5041
900
484
5625
12321
11881
5476
1024
9
256
1024
1936
2704
3844
6084
6889
3721
256
1369
7225
12769
10609
3844
400
49
625
1369
1936
2601
4489
7056
6561
2304
9
3364
10201
12769
7921
2116
121
100
729
1764
2500
3364
5625
7921
5625
1296
225
4900
11664
12100
5929
1225
16
225
1024
1936
2601
3721
6241
7225
3844
324
1225
7225
12996
11025
4225
441
36
576
1296
2025
2704
4225
6889
6400
2401
4
3364
10404
12996
7921
2116
100
144
784
1764
2500
3249
5476
7921
6084
1521
256
5329
12100
12100
5929
1225
25
169
900
1849
2704
3844
6084
7225
4225
441
961
6724
12544
11449
4624
729
1
529
1444
2116
2500
3969
6724
6889
2916
16
2704
9216
12544
8464
2809
225
64
625
1600
2304
3136
4900
7396
6084
1936
64
4096
11025
12544
6889
1600
64
144
784
1681
2401
3600
6084
7921
5329
1024
484
5776
12544
12321
5625
1024
4
256
1089
1936
2601
3969
6561
7225
3481
144
1681
7744
12769
10201
3721
484
9
529
1521
2500
3249
4900
7056
6084
1936
16
3600
10609
12996
7396
1764
49
121
729
1600
2304
3364
6084
8281
5776
1225
324
5329
12100
12321
5929
1225
16
225
1089
1849
2500
3721
6400
7225
3844
256
1296
7225
12544
10404
3969
576
9
529
1444
2209
2704
4225
7056
6724
2601
0
3364
10201
12996
8281
2209
121
100
729
1849
2704
3249
5329
7569
5776
1444
169
4761
11449
12100
6241
1444
49
169
900
1849
2601
3844
6400
7744
4356
484
900
6561
12544
11664
4900
841
1
484
1600
2209
2500
3721
6561
7056
3364
81
2116
8649
12996
9801
3481
400
25
576
1521
2209
3249
5476
7744
6400
2025
36
3969
10816
12996
7396
1849
81
144
784
1849
2601
3481
5929
8281
5776
1225
361
5476
12321
12321
5929
1225
25
225
1024
2025
2704
4225
6724
7056
3481
169
1600
7921
13225
10609
3844
441
25
576
1521
2304
2916
5041
7744
6561
2116
36
4096
11025
12769
7225
1849
100
81
729
1764
2601
3481
5929
8100
5776
1296
289
5329
12544
12544
6084
1225
25
256
1024
2025
2704
4225
6889
7396
3844
196
1681
8281
13456
10609
3721
529
4
625
1936
2601
2809
4356
7056
6724
2500
4
3844
11236
13689
8281
2116
100
144
900
1936
2500
3249
5476
8100
6084
1444
225
5041
12100
12769
6241
1296
25
256
1024
2025
2601
3844
6400
7396
4096
289
1296
7396
12769
11025
4489
676
1
400
1369
2500
3025
4624
7056
6724
2601
0
3249
10201
13456
8649
2500
169
100
729
1764
2809
3721
5929
7921
5625
1296
256
5041
12100
12769
6241
1296
25
225
1024
1936
2704
3969
6561
7744
4225
361
1156
7225
13225
11236
4624
676
4
441
1369
2209
2916
4624
7225
6889
2809
1
3136
10000
13456
8836
2500
169
100
784
1681
2401
3249
5776
8464
6400
1521
225
5184
12100
12544
6400
1521
49
169
900
1849
2704
4096
6561
7744
4489
529
784
6400
12996
12100
5184
900
1
361
1296
2209
2809
4225
6889
7225
3249
49
2500
9409
13689
9801
2916
225
64
576
1444
2304
3364
5476
7921
6561
2116
36
4096
11236
13225
7744
2025
100
144
841
1764
2601
3844
6400
8464
5776
1156
361
5625
12996
12996
6241
1089
9
225
1024
1936
2601
4096
6889
7744
3969
225
1600
8100
13456
10816
4096
676
0
576
2025
2704
2916
4489
7225
6889
2601
0
3249
10404
13689
8649
2401
144
64
676
1681
2500
3481
5776
8464
6400
1681
144
4761
12100
13225
6889
1521
64
169
900
1849
2704
3969
6561
7921
4624
625
784
6561
13456
12321
5329
961
1
361
1296
2116
2704
4489
7396
7569
3481
64
2401
9409
13689
10000
3364
324
36
576
1764
2916
3721
5476
7744
6400
2025
49
4225
11664
13225
7225
1936
121
64
784
1936
2601
3481
6241
8464
5776
1225
361
5776
13225
13225
6241
1225
16
225
1089
1936
2809
4356
7056
7396
3844
196
1849
8836
13689
10201
3600
441
25
576
1521
2401
3249
5329
8100
6889
2304
25
4225
11664
13456
7744
1936
144
81
784
1936
2704
3600
6084
8464
6241
1369
289
5625
12769
13225
6724
1444
25
256
1024
1849
2704
4225
7225
7744
3844
169
1681
8100
13456
10816
3969
529
16
625
1600
2209
3025
5184
8100
6889
2401
1
3721
11236
13689
8464
2304
121
121
841
1764
2500
3721
6400
8836
6241
1369
289
5625
12996
13225
6561
1369
36
196
1089
2116
2809
4225
7056
7569
3844
289
1444
8281
14161
11025
3969
529
9
529
1521
2304
3025
5041
7744
6889
2500
1
3481
10816
13689
8836
2704
169
169
900
1849
2500
3481
6241
8649
6400
1521
196
5184
12769
13456
6724
1444
49
196
961
2025
2809
4096
6889
7921
4356
441
1089
7225
13924
12321
5041
784
0
441
1444
2401
2916
4624
7569
7396
3025
9
2916
10201
13924
9604
2916
256
64
676
1681
2500
3364
5625
8100
7056
2500
25
4356
12100
13924
7569
1936
100
100
841
1936
2809
3844
6400
8281
5329
900
576
6241
13456
12996
5776
1089
4
324
1156
2116
2809
4225
7225
7921
3969
196
2025
9409
14641
10816
3721
484
25
676
1681
2401
3249
6241
9216
6889
1849
81
4096
11449
13689
7921
2025
121
100
784
1849
2601
3969
6561
8649
5776
1024
484
6084
12996
12544
5929
1225
25
256
1156
2116
2809
4356
7225
7744
3721
121
2304
9409
13924
10201
3600
400
25
576
1600
2704
3481
5625
8100
6724
2116
49
4225
11664
13689
7921
2025
81
144
784
1849
2704
3844
6561
8464
5776
1156
361
5776
13225
13689
6561
1296
16
289
1156
2116
2809
4489
7569
7921
3600
121
2025
9025
13689
10201
3600
441
16
529
1521
2500
3249
5329
8281
7396
2401
36
4356
11881
13689
7744
1936
121
81
784
1849
2601
3721
6400
8836
6084
1225
361
5776
13225
13225
6400
1296
25
225
1089
2025
2809
4225
7225
8464
4225
144
2025
9025
13924
10404
3844
441
16
576
1521
2401
3249
5625
8464
6889
2209
36
4096
11236
13689
8100
2209
121
121
841
1849
2704
3844
6561
8649
5929
1089
441
5929
13225
12996
6084
1296
25
256
1225
2209
2809
4489
7225
7744
3721
121
2116
9025
14161
10404
3721
441
9
625
1764
2401
3136
5476
8281
7056
2401
25
4096
11449
13456
7921
2116
144
81
900
2116
2809
3481
5929
8281
5929
1225
361
5625
12996
12996
6400
1296
9
256
1024
2025
2916
4356
7225
7921
4096
225
1681
8649
14161
11236
4356
576
16
625
1600
2304
3136
5184
8100
6889
2500
16
4096
11664
13225
7569
2025
169
64
729
1764
2704
3721
6400
8836
6241
1296
289
5329
12769
13456
6724
1521
25
289
1089
1936
2704
4225
7225
7921
3969
225
1600
7921
13456
10816
3969
484
9
484
1369
2209
2916
4900
7921
7225
2500
4
3481
10404
13689
9025
2704
225
100
841
1936
2601
3721
6400
8836
6241
1521
196
5184
12769
13689
6889
1444
36
196
961
1936
2601
4096
7056
8281
4489
441
1156
7396
13924
11881
4900
784
1
484
1444
2209
2916
4624
7396
7396
3025
9
3136
10404
13924
9216
2809
225
64
676
1681
2601
3721
5929
8464
6241
1764
100
4096
11236
13225
7569
1849
81
144
841
1764
2601
3844
6561
8281
5184
784
625
6084
12996
12544
5929
1156
4
324
1156
2116
2916
4489
7396
7569
3481
81
2401
9409
13924
10404
3481
324
49
676
1600
2500
3249
5184
8100
7056
2500
16
3969
11449
13689
8100
2116
144
121
784
1849
2704
3969
6561
8649
5929
1089
441
6241
13456
13225
6084
1225
9
324
1089
1849
2809
4489
7225
7744
3844
144
2025
8836
13924
10609
3721
441
36
625
1521
2401
3249
5184
7744
6889
2601
9
4096
11881
13924
7921
2025
100
121
729
1600
2601
4096
6724
8836
5776
1089
400
5776
12769
13225
6400
1225
4
324
1089
1936
2500
4096
7225
8281
4225
169
1936
9025
13924
10609
3844
529
16
529
1600
2401
3136
5184
7921
6724
2209
25
3600
10816
13225
7921
2116
144
100
729
1764
2601
3721
6241
8464
5929
1225
324
5476
12544
12769
6400
1369
49
225
1225
2116
2601
3969
6889
7921
3844
169
1849
8464
13456
10201
3481
400
25
529
1444
2304
3025
5184
7921
6724
2209
49
4356
11025
12321
7396
2025
121
100
784
1764
2601
3721
6241
8281
5625
961
441
5184
11664
12769
6561
1444
36
225
1156
2209
3025
4356
7225
7744
3721
169
1849
8836
13924
10609
3721
441
25
625
1600
2304
3136
5184
7921
6724
2116
25
3969
11025
13225
7569
1936
121
100
729
1681
2601
3721
6400
8649
5929
1156
289
5184
12769
13456
6561
1369
25
256
1156
2209
2809
4225
6889
7569
3600
144
1764
8281
13456
10609
3721
484
16
529
1521
2304
3136
5184
7921
6889
2401
16
3969
11449
13456
7921
2025
121
100
729
1681
2601
3844
6241
8281
5929
1156
441
5625
12544
12544
6084
1156
16
225
1024
1936
2704
4225
7056
7396
3844
256
1681
8649
13924
10609
3721
484
16
576
1600
2500
3249
5329
7921
6724
2304
25
4096
11449
13456
7744
1936
100
100
841
1764
2500
3721
6241
8464
5776
1089
400
5776
12769
12544
5929
1225
16
289
1156
1936
2809
4225
7056
7396
3481
64
2209
8464
12996
10000
3721
441
36
676
1681
2401
3136
5184
7921
6724
2116
36
3969
11025
12996
7569
1936
100
121
784
1681
2500
3721
6400
8464
5776
1089
441
5776
12769
12769
6084
1089
4
289
1089
1936
2704
4225
7056
7744
3844
144
1764
8464
13689
10816
3969
441
25
576
1600
2401
3025
5041
7744
6889
2304
16
3969
11449
13225
7569
1764
81
81
676
1681
2500
3600
6084
8281
5929
1369
289
5184
12100
12544
6400
1444
36
225
1024
1936
2601
3969
6561
7569
4225
324
1521
8100
13689
10816
3969
529
16
484
1369
2209
2916
4900
7569
7056
2601
1
3721
11236
13689
8100
2025
100
81
676
1600
2401
3481
5929
8281
6241
1521
196
5041
11881
12769
6400
1444
49
196
961
1849
2401
3721
6724
8649
4900
441
1089
7225
13456
11664
4900
784
0
400
1444
2401
2809
4489
7396
7225
2916
4
2916
10000
13689
9216
2809
225
64
676
1764
2601
3364
5476
8100
6561
1936
64
4225
11449
13225
7396
1764
64
144
841
1764
2500
3721
6241
8100
5184
841
529
5625
12100
12321
5929
1156
16
256
1089
2025
2809
4356
6889
7225
3481
100
2209
9216
13456
9801
3249
289
36
625
1600
2401
3025
5184
7569
6561
2209
16
3969
11236
12544
7225
2025
169
81
784
1764
2500
3364
5776
8464
6400
1444
361
5776
12769
12769
6241
1369
16
289
1089
1764
2500
3844
6561
7744
3969
256
1521
8100
13456
10816
3969
529
16
529
1444
2304
3025
4900
7396
6724
2401
1
3600
10609
13225
8100
2209
169
81
900
2025
2704
3136
5329
8100
6561
1600
196
5184
12321
12996
6561
1444
49
196
1024
1936
2601
3969
6561
7569
3969
361
1156
7056
12769
11025
4489
676
1
484
1444
2304
2809
4356
7056
6561
2704
1
3025
10000
13225
8464
2401
196
64
625
1600
2401
3249
5329
7921
6400
1849
81
4489
11664
12996
6889
1444
49
144
784
1849
2401
3481
6084
8100
5184
784
576
5929
12544
12100
5476
1024
4
289
1156
1936
2704
3969
6724
7225
3481
121
1936
8649
13456
9801
3025
324
16
484
1369
2209
3136
5041
7569
6561
2209
25
3844
10816
12996
7569
1849
64
144
729
1600
2304
3364
5929
8100
5776
1225
289
5184
12321
12321
5776
1225
36
196
1089
2025
2704
4096
6724
7396
3481
169
1600
7744
12996
10201
3844
441
16
484
1444
2209
2916
4761
7569
6724
2209
16
3721
10816
12769
7396
1936
100
81
729
1849
2601
3364
5776
8100
5776
1296
289
5184
12100
12321
6241
1369
16
256
961
1764
2500
3844
6400
7396
4225
441
1024
7056
12996
11236
4489
676
4
484
1296
2025
2809
4489
7056
6561
2601
4
3025
10000
12996
8464
2401
196
64
729
1764
2500
3136
5329
8100
6400
1849
100
4356
11236
12544
6724
1521
81
100
784
1764
2500
3721
6241
7744
4624
676
576
5776
12544
12100
5625
1024
1
324
1089
2025
2809
4489
7225
7396
3364
64
2209
8836
13225
10000
3364
361
49
625
1521
2401
3136
5184
7744
6400
1936
36
3844
10609
12996
7569
1936
100
121
784
1764
2500
3600
6400
8281
5329
900
441
5625
12100
12100
5776
1225
16
256
1024
1936
2809
4096
6561
7056
3364
144
1764
8100
12769
9801
3364
441
16
529
1444
2209
3025
4900
7569
6561
2209
16
3721
10816
12769
7225
1849
100
100
676
1681
2601
3600
5929
8100
5625
1024
441
5776
12544
12544
5929
961
0
256
961
1849
2401
3721
6400
7396
3969
324
1225
7396
12769
10609
4096
576
4
441
1369
2209
2809
4489
7396
6724
2601
0
3249
10000
12996
8464
2500
169
81
729
1764
2601
3249
5476
7921
6084
1681
121
4489
11449
12544
6724
1521
49
121
841
1764
2500
3721
6241
7744
4761
676
625
6084
12769
11881
5329
961
4
289
1089
2209
2916
4096
6561
7056
3481
121
2116
8649
12769
9604
3249
400
25
625
1764
2500
2916
4761
7396
6400
2209
25
3969
11236
12769
7225
1764
121
81
729
1681
2500
3600
5929
8100
5625
1156
361
5476
12321
12100
5776
1156
16
256
1024
1936
2601
3969
6561
7056
3481
144
1936
8649
12996
9409
3249
400
25
529
1444
2304
3025
4900
7225
6400
2209
9
3481
10404
12769
7569
2025
121
100
676
1600
2500
3844
6241
8100
5476
1089
324
5184
11881
12100
5929
1225
16
225
1024
1936
2601
3969
6561
7396
3721
196
1681
8100
13225
10404
3721
441
16
576
1444
2116
3025
5041
7744
6724
2401
16
3844
10816
13225
7569
1936
100
100
784
1681
2401
3481
5929
8281
5776
1225
324
5329
12544
12544
5929
1089
16
256
1089
1936
2601
3969
6724
7396
3721
169
1764
8464
13456
10201
3600
400
16
576
1521
2304
3025
5041
7569
6561
2116
36
3844
10609
12544
7056
1849
100
81
729
1681
2401
3481
5929
8100
5776
1225
289
5329
12100
12544
6084
1296
25
225
1024
1936
2601
4096
7225
7744
3481
121
1764
8281
13225
10201
3721
484
16
529
1521
2209
3136
5184
7744
6241
2209
1
3600
11025
13456
7921
2025
100
144
784
1764
2401
3481
6084
8281
5929
1296
289
5329
12544
12769
6241
1225
9
225
961
1849
2601
3844
6561
7744
4225
400
1089
7225
12769
10816
4489
676
0
441
1369
2116
2809
4761
7569
7056
2704
0
3136
10201
13225
8836
2500
225
64
676
1600
2500
3481
5776
8464
6561
1849
144
4761
11881
12996
6889
1681
64
144
841
1764
2601
3721
6400
7744
4624
676
576
6084
12769
11881
5184
961
1
289
1156
2025
2704
4225
6724
7056
3249
121
1936
8649
13456
10000
3364
324
49
625
1521
2304
3249
5625
8100
6241
1764
64
4356
11236
12996
7056
1764
64
144
841
1849
2500
3600
6084
7921
5329
961
484
5625
12544
12100
5329
961
4
225
961
1849
2500
3721
6241
7225
4096
361
1089
7056
12769
10816
4225
625
1
441
1369
2209
2809
4225
6724
6724
2809
4
3025
10000
13225
8649
2500
169
100
729
1681
2500
3249
5329
7744
6084
1600
169
4489
11236
12100
6400
1369
36
169
841
1764
2401
3481
5776
7744
5041
676
784
6400
12544
11449
4900
841
0
361
1156
1936
2601
3844
6400
6724
3136
64
2025
8464
12544
9025
3025
289
64
625
1521
2209
2809
4489
6724
5929
1849
25
3481
9801
11881
7056
1849
100
121
784
1764
2500
3249
5476
7396
5184
1089
324
5184
11236
10816
5184
1089
9
256
961
1849
2304
3364
5776
6889
3600
289
1089
6724
12100
10000
3844
484
4
400
1225
1849
2500
3844
6084
5929
2304
1
2601
8649
11664
7569
2209
121
100
625
1444
2116
2809
4624
6561
5329
1444
100
3721
9604
10609
5476
1156
16
196
841
1521
2025
2916
4900
6084
3844
484
484
4624
10000
9801
4489
784
1
289
961
1681
2116
3136
4900
5625
2916
196
961
5625
10404
8836
3364
441
9
361
1089
1849
2304
3481
5476
5625
2401
36
2116
7921
11236
7744
2401
169
64
529
1369
2116
2601
4356
6400
5476
1764
25
3481
9409
11025
6400
1521
64
81
529
1444
2401
3025
4761
6724
4900
1156
196
4356
10404
11025
5476
1156
25
169
841
1681
2304
3364
5625
6561
3600
324
961
6084
11236
10000
4096
625
0
324
1089
2025
2601
3969
6241
6561
2916
49
2209
8281
11881
8281
2809
256
49
529
1296
2025
2809
4761
7225
5929
1849
25
3364
9409
11025
6724
1764
100
64
625
1369
2025
2916
5184
7056
5041
1089
256
4624
10816
10404
4900
961
16
144
729
1681
2401
3481
5625
6561
3600
324
961
6241
11236
9604
3844
625
0
324
1024
1764
2304
3721
6084
6241
2601
25
2209
7921
11025
7396
2304
196
36
529
1296
1849
2601
4356
6561
5329
1600
36
3136
8836
10404
5929
1296
36
81
529
1296
1936
2704
4356
6084
4096
841
196
3721
9216
9604
4761
1024
16
169
784
1521
1936
2809
4624
5476
3025
324
729
5041
9025
7921
3249
484
0
256
900
1600
2116
3025
4761
5041
2500
100
1296
5929
9604
7396
2601
289
16
400
1024
1600
2116
3364
5329
4900
1764
0
2304
7225
9409
5776
1600
81
81
484
1156
1600
2209
3600
5329
4489
1369
36
2916
7744
8836
4624
961
16
100
576
1156
1600
2116
3600
5329
4356
1089
196
3969
9025
9025
4356
784
1
169
625
1156
1600
2500
4489
5929
3721
625
400
4489
9604
9216
4225
729
9
169
784
1521
2025
3025
5041
6084
3481
400
729
5041
9801
8649
3721
676
1
196
784
1444
2025
3136
5184
5929
3025
225
1089
5929
9801
7921
3025
400
9
324
900
1600
2116
3249
5476
5776
2500
25
2209
7921
10404
6724
1936
121
64
484
1225
1849
2401
3969
5929
5041
1521
36
3249
8649
9801
5476
1296
49
81
576
1225
1764
2500
4356
6241
4489
1024
169
3844
9216
9604
4761
961
25
121
676
1444
2025
2704
4624
5776
3600
529
529
4624
9409
8836
3844
676
0
196
784
1444
1936
2916
4900
5476
2916
169
1024
5625
9409
7744
2809
361
9
400
1024
1600
1936
3136
5184
5041
2025
4
2025
6724
9025
5929
1764
100
64
484
1024
1521
2025
3249
5041
4356
1369
36
2809
7396
8100
4489
1024
25
81
484
1089
1521
2116
3721
5184
3844
841
169
3249
7921
8281
4096
729
1
169
529
1024
1521
2401
3844
4900
3136
484
400
3969
8281
7921
3600
529
1
225
784
1369
1764
2500
4225
5041
2916
289
625
4624
9025
8100
3249
441
0
256
784
1521
1936
2916
4624
5184
2500
121
1156
5476
8836
6889
2500
256
25
324
900
1444
1849
3025
4761
4624
1849
1
2025
6400
8464
5625
1681
100
64
484
1024
1521
1936
3136
4900
4225
1296
16
2601
7056
8100
4624
1024
16
121
529
1089
1521
2025
3481
4900
3844
900
169
3481
8100
8100
3969
676
1
169
576
1089
1600
2401
4096
5184
3136
484
441
4096
8464
8100
3600
576
0
196
784
1444
1849
2401
3844
4900
2916
324
484
4096
8281
7744
3364
529
0
196
784
1444
1849
2809
4624
5184
2500
121
1089
5184
8464
6889
2601
324
16
361
961
1369
1764
2916
4761
4624
1849
1
2025
6561
8649
5625
1600
100
64
484
1089
1600
2025
3249
4900
4225
1296
36
2809
7396
8281
4489
961
16
100
529
1089
1521
2025
3481
5476
4356
900
225
3721
8281
8464
4096
729
1
169
676
1296
1764
2304
3721
5041
3249
529
324
3969
8649
8464
3721
576
0
256
784
1296
1764
2601
4624
5329
2916
289
676
4761
9025
8281
3481
441
4
289
784
1296
1764
2704
4624
5184
2601
144
900
4900
9025
7396
2809
324
25
361
900
1521
2025
2916
4489
4624
2025
16
1764
6400
8836
5929
1681
100
64
441
1024
1369
1764
3136
4900
4225
1444
16
2601
7225
8281
4624
1024
16
144
576
1156
1600
2209
3844
5184
3600
784
196
3600
8100
8281
3969
676
1
169
625
1225
1681
2209
3721
5041
3364
576
361
4225
8836
7921
3249
576
4
169
676
1296
1764
2601
4489
5329
3025
289
676
4624
8836
7744
3249
484
0
289
841
1444
1764
2704
4489
5041
2500
121
1024
5329
8649
6889
2401
256
16
324
900
1369
1764
2809
4624
4624
1936
1
2025
6724
8649
5476
1444
64
64
441
961
1369
1764
3136
4900
4225
1444
9
2500
6889
8281
4900
1156
16
121
576
1089
1444
1936
3249
4761
3721
961
144
3249
7744
7921
3844
676
4
121
484
1156
1681
2304
3844
5041
3481
625
361
3969
8281
8100
3721
625
0
196
676
1225
1681
2401
3969
5041
3136
441
484
4225
8649
7569
3249
625
9
225
841
1444
1764
2500
4096
4900
2601
225
784
4624
8281
7056
2704
361
1
225
784
1369
1681
2500
4225
4624
2209
64
1156
5329
8100
6084
2025
169
36
361
961
1444
1764
2809
4356
4096
1444
1
2116
6400
8100
5041
1225
36
100
529
1024
1521
1849
3136
4624
3721
1156
25
2601
7569
8100
4096
841
16
121
529
1089
1444
1936
3481
5184
3721
729
256
3481
7921
7921
3600
676
1
144
576
1156
1600
2209
3844
4900
3136
484
400
3969
8281
7744
3249
529
0
196
784
1369
1764
2304
3969
4624
2601
196
729
4489
8281
6889
2704
324
4
256
784
1296
1681
2500
4225
4624
2304
81
1024
5041
8100
6400
2209
225
25
289
841
1521
1849
2601
4225
4096
1681
1
1936
6084
7921
5329
1600
100
121
676
1296
1521
1764
3025
4489
3721
1024
81
2704
7056
7921
4225
841
9
144
529
1089
1521
2025
3249
4624
3364
784
169
3249
7569
7569
3481
576
0
169
529
1024
1444
2025
3721
4900
3136
529
361
3721
7921
7744
3364
576
0
169
625
1089
1521
2304
3969
4900
2809
324
625
4356
8281
7225
2809
361
4
256
841
1369
1764
2704
4096
4356
2116
100
961
4900
8100
6400
2209
225
16
324
900
1369
1681
2601
4356
4356
1849
4
1764
6084
8464
5776
1444
49
100
441
841
1225
1681
2916
4624
4225
1444
9
2304
6241
7744
4761
1225
36
81
441
961
1444
1849
3136
4489
3721
1156
36
2601
7225
8281
4489
900
1
169
576
1089
1444
1936
3364
4900
3721
841
144
3136
7569
7921
3844
729
9
100
529
1156
1600
2116
3721
5041
3364
576
289
3721
8100
7921
3600
625
0
169
625
1225
1681
2304
3969
4900
2916
361
484
4096
7921
7396
3136
484
0
225
676
1225
1600
2401
4096
4900
2601
196
784
4624
8464
7056
2601
289
16
256
729
1369
2025
2704
4225
4356
1936
36
1369
5476
8464
6241
1936
144
49
441
1024
1521
1936
2916
4489
3969
1369
16
2401
6889
8281
4761
1024
16
144
576
1156
1521
1849
3249
4624
3600
841
196
3364
7569
7744
3600
576
0
169
576
1156
1600
2025
3249
4356
3136
625
289
3600
7744
7396
3249
529
1
225
676
1225
1600
2116
3600
4489
2500
225
676
4225
7921
7056
2809
324
16
361
900
1369
1764
2401
3721
4096
2025
64
1024
4900
8100
6400
2209
196
36
400
961
1444
1681
2601
4096
4096
1600
0
2025
6241
8281
5329
1296
36
121
529
1089
1521
1764
2704
4225
3481
1024
36
2304
6561
7569
4096
784
1
196
625
1089
1369
1681
2916
4356
3364
676
256
3481
7569
7569
3364
441
4
225
676
1156
1521
1936
3249
4624
3025
441
441
3969
7921
7225
3025
400
9
256
729
1225
1521
2116
3600
4489
2704
289
625
4489
8464
7396
2809
289
25
289
784
1225
1600
2601
4096
4356
2116
100
1024
4900
8281
6724
2209
196
25
361
961
1521
1764
2500
4096
4096
1521
0
1849
6084
8281
5476
1521
81
121
576
1156
1521
1849
2809
4356
3844
1225
36
2601
6889
7921
4225
841
4
144
484
1024
1444
1936
3136
4624
3364
729
144
2809
7056
7569
3844
676
0
196
625
1156
1521
1936
3249
4624
3136
484
361
3721
7569
7225
3249
484
0
225
676
1225
1521
2116
3844
5184
2916
289
625
4356
8281
7569
3025
400
4
289
784
1296
1600
2401
3969
4761
2401
144
900
4761
8281
6889
2500
256
25
400
900
1369
1681
2500
4096
4356
1849
9
1521
5476
8100
5776
1849
121
64
441
1024
1444
1764
2704
4225
3844
1296
16
2401
6724
8100
4624
961
9
144
484
1089
1521
1849
2916
4356
3600
900
100
2916
7225
7569
3721
576
1
169
576
1089
1369
1764
3136
4624
3249
576
256
3364
7396
7569
3600
576
1
225
625
1089
1521
2209
3600
4900
3136
441
484
4225
8281
7569
3249
484
1
256
729
1296
1600
2304
3844
4761
2704
256
676
4489
8464
7396
2809
361
9
289
784
1296
1681
2401
4096
4489
2304
100
961
4900
8281
6400
2209
196
25
361
900
1369
1681
2601
4489
4624
1681
1
2025
6084
7921
5184
1521
64
81
441
961
1600
1936
2809
4225
3844
1296
9
2209
6400
8100
4900
1156
16
144
576
1089
1444
1849
3025
4489
3481
961
121
3025
7396
7921
4096
676
0
196
625
1156
1521
1936
3249
4900
3481
676
256
3481
7744
7921
3844
625
1
225
676
1156
1600
2025
3481
4900
3136
441
484
4096
8281
7744
3249
400
4
256
729
1296
1600
2304
3844
4624
2704
225
676
4356
8281
7225
2809
324
9
289
784
1369
1764
2304
3844
4356
2209
100
1024
5041
8281
6400
2025
169
36
400
961
1444
1764
2601
4225
4096
1521
0
1936
6241
8281
5476
1369
25
169
529
900
1225
1764
2916
4489
3844
1225
25
2500
6889
8100
4356
841
4
169
625
1156
1444
1764
3025
4356
3600
841
144
3136
7569
7921
3844
625
0
196
625
1156
1521
2025
3364
4624
3249
625
256
3600
7744
7569
3600
529
0
196
625
1156
1521
2116
3721
4761
3025
361
529
4096
8100
7396
3136
484
1
256
729
1369
1681
2401
3969
4624
2401
169
784
4624
8464
7056
2704
289
25
324
900
1369
1681
2601
4225
4356
1936
36
1369
5476
8281
6241
2025
144
64
484
1024
1521
1849
2916
4489
3969
1369
9
2304
6724
8281
4900
1024
4
144
484
1024
1444
1681
2809
4489
3721
1089
81
2809
6889
7569
4096
784
4
169
576
1156
1521
1849
3249
4624
3364
729
225
3364
7744
7744
3844
676
0
225
676
1369
1600
2116
3364
4624
3025
441
400
3844
7921
7396
3136
441
1
225
625
1089
1521
2304
3844
4900
2809
256
676
4356
8464
7396
2916
361
9
324
729
1225
1764
2809
4225
4489
2116
100
1024
4900
8281
6724
2304
225
25
361
961
1369
1764
2601
4356
4225
1600
1
1849
6084
8100
5625
1600
64
100
529
1024
1521
1936
3136
4624
3600
1024
81
2809
6889
7921
4225
841
0
169
576
1089
1521
1849
3136
4624
3969
1024
144
3481
8100
8100
3721
576
0
196
625
1156
1521
2025
3600
4761
3025
441
484
3969
8100
7569
3249
400
9
256
729
1156
1521
2209
3844
4624
2704
256
676
4489
8464
7396
2916
324
16
324
784
1296
1936
2916
4356
4225
1849
49
1156
5041
8281
6400
2116
169
49
400
1024
1444
1764
2809
4225
3969
1600
1
2025
6561
8464
5329
1369
36
121
484
1089
1444
1849
3025
4624
3721
1024
81
2809
6889
7744
4225
784
1
169
529
1089
1521
2025
3364
4761
3481
784
196
3364
7569
7921
3969
729
0
225
676
1225
1521
2116
3481
4900
3249
484
400
3969
8464
8100
3481
484
9
256
625
1225
1600
2304
3844
4900
2916
289
625
4489
8464
7396
2916
361
4
289
841
1369
1681
2401
4096
4624
2401
121
961
5041
8464
6724
2209
169
25
289
841
1444
1764
2500
3969
4489
1936
16
1681
5929
8464
5776
1600
64
121
529
1024
1521
1849
2916
4356
3721
1089
64
2809
7225
7744
4225
841
4
144
529
1089
1521
1849
3249
4761
3600
841
169
3364
7569
7396
3600
676
1
196
676
1225
1521
2025
3481
4761
3249
529
361
3969
8464
7921
3481
484
1
256
841
1444
1600
2116
3721
4624
2809
289
625
4489
8464
7225
2809
324
4
225
729
1369
1764
2500
4096
4624
2401
144
900
4761
8281
6889
2601
256
25
361
900
1444
1764
2601
4225
4356
1936
16
1521
5625
8281
5929
1849
121
64
441
1024
1444
1764
2809
4489
4096
1444
16
2500
6889
8464
4900
1089
1
225
625
1156
1444
1849
3136
4489
3364
784
121
3025
7396
7921
3844
676
0
196
676
1156
1521
1936
3364
4761
3249
625
324
3844
8281
8100
3600
484
1
256
729
1225
1600
2209
3844
4761
2809
324
529
3969
8281
7921
3481
484
4
324
900
1444
1764
2500
3969
4624
2401
144
784
4489
8281
7225
2809
256
36
361
784
1296
1681
2601
4225
4489
1849
9
1521
5625
8281
5776
1764
121
49
441
961
1444
1764
2704
4624
4489
1444
49
2704
6724
7744
4489
1024
9
169
529
1024
1444
1849
2916
4356
3600
961
81
2916
7056
7569
4096
729
0
225
576
1089
1369
1764
3136
4489
3249
729
225
3481
7569
7744
3600
529
1
225
676
1156
1600
2116
3481
4624
3025
441
484
3969
8100
7569
3249
400
1
196
625
1225
1681
2304
3844
4900
2704
256
625
4356
8281
7396
2916
361
9
289
784
1296
1681
2401
3969
4489
2304
121
900
4761
8281
6724
2500
225
25
361
900
1369
1681
2500
3969
4225
1849
16
1600
5625
7744
5476
1681
100
81
484
961
1444
1764
2704
3969
3721
1296
9
2304
6724
8281
4761
1089
9
196
625
1156
1521
1849
2809
4356
3600
961
81
2916
7225
7921
4096
784
0
196
625
1225
1600
1849
3136
4624
3364
676
256
3600
7569
7744
3600
576
1
256
676
1156
1444
2025
3364
4624
3136
529
400
3969
8100
7225
3025
441
0
196
676
1369
1681
2116
3481
4489
2704
361
529
4225
8100
7396
2916
400
4
256
729
1296
1600
2304
3844
4624
2601
196
729
4489
8464
7225
2809
361
25
529
1024
1369
1521
2304
4096
4356
1936
16
1521
5776
8281
6084
1764
121
64
484
1156
1521
1849
3025
4624
3969
1296
25
2601
7056
8281
4761
1024
9
169
576
1156
1521
2025
3249
4761
3721
900
169
3481
7744
7744
3844
625
0
169
576
1225
1681
2025
3481
5041
3364
441
529
4225
8100
7396
3136
400
4
256
784
1296
1521
2209
3481
4489
2601
256
576
4225
8281
7225
2809
361
9
324
841
1369
1681
2209
3721
4356
2209
100
961
4900
8281
6561
2304
196
36
400
900
1369
1681
2500
4096
4225
1764
9
1521
5625
8100
5776
1764
100
81
484
961
1369
1600
2601
4225
4096
1521
1
2025
6241
8100
5041
1296
25
121
529
1089
1600
1849
2916
4356
3481
900
100
3025
7225
7744
4096
676
1
289
729
1089
1296
1681
3136
4761
3481
676
289
3721
7921
7744
3600
576
1
196
625
1089
1369
1936
3600
5329
3844
625
441
4356
8649
7921
3364
484
4
289
729
1296
1600
2116
3721
4624
2809
196
841
4761
8281
7056
2601
289
25
361
900
1369
1764
2500
4225
4624
2209
64
1089
5184
8649
7056
2209
169
64
400
961
1369
1764
2601
4225
4225
1600
0
1849
6084
8281
5476
1444
49
100
529
1089
1444
1764
2704
4356
3721
1156
36
2601
6889
7921
4225
841
1
169
576
1156
1600
1936
2916
4096
3249
841
121
3136
7569
7921
3721
576
0
225
729
1296
1521
1936
3249
4489
3136
576
324
3844
7921
7744
3481
529
4
256
729
1296
1600
2116
3600
4624
2704
289
576
4225
8281
7225
2916
361
4
289
784
1296
1681
2401
3844
4489
2304
169
841
4624
8281
7056
2500
256
25
361
900
1521
1936
2704
4096
4225
1681
9
1521
5329
8100
5929
1936
144
49
441
1024
1444
1764
2704
4225
3969
1369
4
2209
6400
8281
4900
1225
25
144
576
1156
1521
1936
3025
4489
3600
961
121
3025
7396
7921
4096
676
0
196
625
1225
1600
2025
3364
4900
3600
676
400
4096
8281
7744
3481
484
1
256
625
1156
1600
2304
3721
4900
3025
400
441
4225
8464
7744
3249
400
4
256
729
1369
1681
2401
3969
4624
2601
196
784
4624
8649
7569
2916
324
9
324
1089
1764
1936
2500
3844
4356
2025
49
1296
5476
8464
6400
2025
169
49
441
1024
1600
1936
2916
4489
4096
1444
9
2304
6561
8100
5184
1369
36
144
529
1089
1521
2025
3249
4761
3721
1024
121
3136
7744
8100
3844
625
0
225
676
1156
1521
2116
3481
4900
3249
484
400
3969
7921
7921
3481
529
1
225
729
1369
1764
2209
3481
4624
2809
361
529
4356
8464
7744
3025
400
4
289
841
1444
1849
2500
3969
4624
2401
144
900
4900
8649
7225
2704
289
16
324
841
1369
1764
2809
4489
4624
1936
16
1444
5625
8464
6084
1849
121
64
441
1024
1521
1936
3025
4624
3969
1296
25
2601
7225
8281
4761
1089
9
169
625
1156
1600
2025
3249
4761
3721
961
144
3249
7744
7921
3969
676
0
196
676
1225
1444
1849
3364
4900
3364
625
324
3844
8100
7921
3481
529
1
256
676
1296
1600
2209
3600
4900
3025
361
529
4356
8464
7921
3249
441
4
289
841
1369
1849
2500
4096
4761
2601
169
841
4761
8649
7396
2809
289
16
361
961
1444
1849
2601
4225
4624
2116
25
1444
5625
8649
6241
1936
144
64
441
1024
1521
1849
2916
4624
4096
1444
9
2401
7056
8464
5041
1089
4
144
576
1089
1521
1849
3025
4489
3721
1024
100
2916
7396
7921
3969
729
1
196
576
1089
1444
2116
3844
5329
3721
625
400
4225
8464
8281
3600
529
1
225
729
1296
1681
2209
3600
4624
2916
361
576
4225
8281
7396
3025
400
4
256
784
1296
1681
2401
3969
4900
2704
225
784
5041
8836
7569
2916
324
16
361
961
1521
1849
2601
4356
4624
2025
25
1521
5776
8464
6084
1936
121
81
484
1024
1521
1849
2916
4489
3969
1369
16
2401
6889
8281
4761
1024
9
144
529
1024
1521
1936
3136
4624
3721
900
121
3136
7396
7921
3969
676
0
196
625
1225
1600
2025
3481
4900
3249
529
400
3969
8100
7921
3600
529
4
289
784
1296
1681
2304
3721
4900
3025
361
576
4356
8649
8100
3364
441
4
289
784
1369
1764
2500
4225
4900
2704
225
784
5041
9025
7056
2401
289
4
256
784
1369
1681
2601
4356
4624
2116
64
1156
5329
8649
6724
2025
144
25
361
961
1444
1849
2809
4356
4096
1681
4
1764
6724
9216
5929
1444
9
196
529
1024
1444
1849
3025
4489
3844
1225
49
2916
7225
7921
4225
900
9
225
729
1225
1444
1849
3136
4624
3481
841
144
3364
7921
8464
4096
576
4
225
529
961
1681
2601
3844
4761
3025
484
361
3969
8464
8100
3600
576
1
225
676
1296
1764
2304
3721
5041
3249
400
529
4489
8836
7921
3481
441
4
256
784
1296
1681
2500
4225
4900
2601
196
841
4900
8281
6724
2601
324
4
289
784
1296
1764
2500
4225
4761
2304
64
1225
5476
8649
6561
2209
169
49
441
1089
1369
1681
2704
4489
4356
1681
1
2401
6724
8281
5184
1296
25
121
576
1089
1521
1849
3136
4489
3721
1089
64
3025
7569
8464
4225
784
1
196
625
1225
1681
2025
3364
4900
3721
729
256
3721
7744
7921
3969
676
1
256
676
1296
1600
2116
3600
4900
3364
576
400
4356
8836
8100
3600
484
1
289
784
1296
1681
2401
3969
5041
2916
256
729
4624
8836
7744
3025
289
25
324
841
1296
1681
2401
4096
4761
2304
81
1225
5476
8836
6889
2209
121
81
441
961
1444
1764
2601
4225
4225
1764
1
1849
6241
8836
5625
1369
25
121
484
1024
1369
1764
3025
4624
3969
1225
64
3025
7569
8100
4225
900
4
169
576
1156
1600
1936
3249
4761
3721
900
196
3600
7921
7921
3844
576
1
196
625
1156
1521
1936
3364
4761
3249
625
289
3721
8281
8100
3600
576
0
196
729
1444
1849
2209
3721
4624
2916
361
576
4356
8464
7744
3249
441
9
324
676
1024
1444
2500
4489
5184
2601
196
841
4624
8464
7225
2704
289
16
324
900
1444
1764
2601
4225
4356
1936
25
1521
5776
8464
5929
1849
121
49
484
1156
1521
1764
2809
4489
4096
1369
25
2500
7056
8281
4761
1024
9
169
576
1156
1521
1936
3136
4761
3721
900
121
3136
7569
8100
3969
676
0
225
576
1089
1681
2209
3364
4489
3136
625
324
3844
8281
8100
3364
400
4
225
676
1089
1521
2025
3844
5184
3025
289
625
4356
8464
7744
3136
400
9
324
900
1444
1764
2304
3844
4624
2500
169
841
4900
8836
7396
2704
289
25
484
1156
1681
1764
2601
4096
4225
1681
1
1849
6241
8100
5329
1444
81
64
441
961
1444
1681
2704
4489
4096
1369
16
2116
6084
7744
5041
1225
9
169
576
1089
1444
1849
2916
4356
3600
900
121
3136
7569
7744
3721
625
0
196
676
1156
1444
1849
3025
4489
3249
625
256
3600
7921
7921
3600
529
1
256
729
1225
1521
2025
3600
4761
2916
400
441
3721
8281
8100
3249
361
4
225
729
1369
1681
2304
3969
4900
2601
196
784
4489
8281
7056
2601
256
9
225
729
1225
1764
2500
4096
4489
2209
81
1225
5476
8464
6400
2116
169
36
441
1089
1521
1764
2601
4356
3969
1444
9
2209
6724
8281
5184
1156
9
169
529
1024
1521
1849
2809
4356
3844
1156
36
2704
7225
7744
3969
729
0
169
484
961
1369
1764
3025
4624
3844
900
225
3364
6561
7056
4356
1024
16
169
784
1600
1936
2116
3364
4489
2809
529
289
4489
9409
8281
3136
324
25
324
676
961
1369
3249
6400
6084
1936
1
1156
4624
8281
7569
3025
256
64
324
961
1764
1764
2304
3600
4096
2025
81
1089
4900
7921
6724
2704
361
49
576
1089
1521
1764
2809
4356
3969
1600
0
2116
6724
8464
5329
1296
25
144
576
1156
1521
1936
3136
4489
3600
1024
100
2916
7225
7921
3844
676
1
144
576
1089
1521
1936
3364
4624
3364
676
289
3600
7744
7744
3481
529
4
225
625
1089
1444
2304
3969
4900
2916
324
576
4225
8281
7569
2916
361
4
225
676
1296
1764
2500
3844
4489
2401
196
676
4489
8464
7225
2704
324
16
324
900
1444
1764
2500
3969
4624
2209
49
1296
5329
8464
6561
2116
169
49
441
1024
1444
1764
2809
4356
4096
1521
4
2209
6561
8281
5329
1225
36
100
484
1089
1521
2025
3136
4624
3721
1089
81
2916
7225
7921
4096
784
0
196
676
1156
1444
1849
3136
4624
3481
676
256
3481
7744
7744
3600
576
0
196
729
1296
1600
1936
3364
4624
3025
441
484
4096
8281
7744
3249
441
4
289
784
1296
1681
2304
3844
4900
2809
256
784
4761
8281
7396
2916
361
16
324
841
1444
1764
2601
4225
4624
2304
81
1089
5184
8464
6724
2304
196
36
361
900
1444
1764
2500
4225
4225
1849
4
1764
5929
8281
5625
1600
64
100
484
1024
1369
1764
2916
4356
3844
1225
36
2601
6889
7921
4761
1089
4
225
676
1156
1521
1764
3136
5041
3969
841
225
3481
7569
7921
3969
729
0
225
676
1225
1600
2025
3481
4761
3364
529
441
4096
8464
7744
3249
400
4
196
784
1444
1764
2116
3600
4624
2809
289
625
4356
8281
7569
3025
361
25
324
841
1296
1600
2304
3844
4489
2401
121
1024
5184
8464
6561
2116
196
25
361
961
1369
1764
2704
4225
4225
1681
1
1849
5929
8281
5625
1600
64
100
484
1024
1444
1764
2809
4225
3721
1225
49
2704
6724
7569
4225
841
4
144
529
1024
1444
1764
3025
4761
3600
961
121
3025
7569
7921
3969
676
0
225
729
1225
1600
2116
3600
4761
3025
400
441
3969
8100
7744
3249
484
0
225
676
1225
1764
2500
3844
4624
2809
289
576
4356
8281
7569
3025
361
9
289
784
1296
1681
2500
4096
4761
2500
144
900
4900
8464
6889
2500
289
16
324
841
1444
1849
2601
3969
4225
1849
25
1444
5476
8100
5776
1764
100
81
484
1024
1521
1849
2809
4225
3721
1225
25
2500
6724
7921
4624
1024
4
169
576
1089
1444
1764
3025
4624
3600
900
144
3136
7396
7744
3844
676
0
196
625
1225
1600
2025
3364
4624
3249
529
400
3721
7569
7744
3600
529
0
225
784
1296
1681
2209
3600
4624
2916
361
625
4356
8100
7225
2916
361
9
256
729
1296
1681
2500
4096
4761
2500
144
841
4761
8649
7225
2704
289
36
400
961
1444
1681
2500
4225
4225
1849
36
1369
5776
8649
5929
1764
100
81
484
900
1225
1521
2809
4624
4225
1444
4
2209
6241
8100
5041
1225
25
144
576
1156
1521
1936
3136
4761
3721
900
169
3364
7569
7921
3721
576
0
225
625
1225
1600
1936
3249
4489
3025
625
256
3721
8100
7921
3721
529
9
289
841
1521
2025
2209
3364
4225
2500
225
576
4356
8100
7056
2809
324
9
256
676
1225
1681
2304
3721
4356
2401
196
729
4761
8464
7225
2601
289
49
400
841
1296
1681
2500
4225
4356
2025
36
1296
5476
8464
6084
1764
100
49
400
1024
1369
1681
2809
4489
4096
1296
16
2401
6724
8100
4761
1089
16
169
576
1089
1521
1849
3364
4761
3600
841
169
3249
7569
7921
3844
625
0
225
625
1156
1521
1936
3364
4900
3481
529
441
4096
7921
7569
3364
529
1
256
729
1369
1681
2304
3600
4356
2601
289
576
4356
8464
7569
3025
361
9
289
841
1521
1936
2401
3721
4225
2304
144
784
4761
8281
7056
2704
289
36
400
961
1369
1681
2601
4225
4356
1936
16
1521
5625
8464
5929
1849
100
64
441
1024
1444
1764
2916
4624
4096
1369
16
2401
7056
8464
4761
961
9
144
576
1089
1444
1849
3136
4624
3721
1024
121
3025
7569
8100
3969
676
0
196
676
1225
1521
1936
3364
4761
3364
529
400
3969
8100
7744
3249
441
0
196
676
1225
1681
2304
3844
4900
2916
324
576
4356
8649
7569
3136
400
9
324
784
1296
1681
2401
3969
4624
2500
169
784
4900
8464
7225
2601
256
25
324
900
1369
1764
2601
4356
4489
1936
16
1444
5776
8281
5625
1681
100
49
400
961
1444
1764
2809
4489
4096
1444
9
2401
6889
8281
4761
1089
25
121
529
1089
1444
1849
3025
4489
3721
1024
81
2916
7225
7921
3969
729
0
196
625
1225
1521
1764
3025
4489
3364
729
196
3481
8100
8100
3721
529
1
225
676
1225
1600
2025
3481
4900
3249
441
484
4225
8281
7744
3364
441
4
256
729
1296
1764
2401
3844
4624
2601
225
676
4489
8281
7056
2809
324
4
289
841
1369
1764
2401
3844
4356
2304
144
961
5041
8464
6724
2304
196
25
361
900
1369
1600
2500
4356
4489
1849
1
1764
5929
8100
5625
1521
64
100
529
1024
1444
1764
2809
4356
3844
1156
49
2601
6889
7921
4356
841
9
144
576
1296
1681
1764
2916
4489
3481
900
144
3364
7744
7921
3844
625
0
196
676
1225
1521
1849
3249
5041
3481
529
484
4096
8281
7744
3364
441
4
256
729
1225
1681
2209
3600
4624
2809
324
576
4225
8464
7396
3025
361
9
289
784
1369
1681
2401
3969
4489
2209
121
841
4761
8100
6889
2401
225
25
324
961
1521
1764
2601
4225
4096
1681
9
1444
5476
8100
5929
1849
121
64
441
1024
1369
1681
2704
4356
4096
1444
4
2116
6241
7921
4900
1225
25
144
576
1024
1444
1849
2916
4489
3600
1024
100
2916
7396
8100
3969
676
0
169
576
1089
1444
2116
3721
4761
3136
576
256
3600
8100
7921
3600
484
1
196
625
1156
1600
2209
3721
4624
2916
361
576
4356
8281
7225
2809
361
4
256
676
1225
1681
2401
3969
4489
2500
225
676
4356
8100
6889
2809
361
9
324
841
1444
1681
2401
3844
4225
2116
100
1089
4761
7744
6241
2401
256
36
400
1024
1444
1764
2704
4356
3969
1444
9
2209
6400
7921
5041
1225
36
100
484
961
1521
2116
3249
4356
3481
1089
64
2704
6889
7744
4096
729
1
121
484
1024
1444
1849
3136
4624
3481
784
169
3249
7396
7396
3481
576
0
196
625
1156
1521
2025
3364
4624
3025
484
441
4096
8100
7396
3249
484
1
289
841
1296
1600
2209
3600
4624
2704
256
676
4624
8281
7056
2704
324
4
256
784
1444
1849
2401
3721
4225
2209
144
784
4624
8281
6724
2401
225
25
324
900
1369
1681
2500
4096
3969
1600
4
1521
5476
7921
5625
1681
81
81
441
1024
1444
1681
2704
4096
3969
1444
4
2209
6561
8100
4900
1156
16
144
576
1089
1521
2025
3136
4489
3481
900
121
3025
7225
7744
3969
729
1
169
625
1156
1521
1936
3364
4761
3364
625
324
3600
7569
7744
3481
529
1
225
625
1156
1600
2209
3481
4489
2809
361
361
3721
8281
8100
3249
441
9
289
784
1369
1681
2304
3721
4624
2500
256
676
4624
8649
7396
2704
289
25
324
900
1369
1764
2500
4096
4624
2025
1
1764
5625
8100
5776
1849
121
64
441
1024
1444
1764
2601
4225
4096
1521
4
2116
6241
8100
5041
1296
36
121
484
1089
1521
1849
2916
4489
3844
1024
100
2916
7396
7921
3969
676
0
169
576
1156
1521
1936
3249
4489
3364
729
196
3481
7744
8100
3600
484
4
196
576
1156
1521
2116
3600
4761
2916
400
529
4096
8100
7396
3364
529
1
289
900
1444
1681
2304
3844
4761
2500
196
729
4489
8281
7056
2704
225
25
289
784
1296
1681
2401
3969
4356
2025
49
1225
5184
8464
6400
2116
169
36
400
961
1600
1936
2704
4096
3844
1444
0
1849
6084
8100
5329
1369
25
144
625
1089
1444
1764
2916
4489
3844
1024
81
2916
7056
7569
4096
841
1
225
625
1024
1444
1849
3249
4761
3481
784
225
3481
7569
7744
3600
576
0
144
576
1156
1444
2025
3600
4900
3136
400
400
3969
8100
7744
3249
484
1
256
784
1369
1681
2401
3844
4624
2704
256
676
4356
8281
7396
2916
324
9
289
784
1296
1764
2401
3844
4489
2304
100
1024
4900
8100
6400
2209
196
25
400
1024
1444
1681
2500
4096
3969
1521
0
2025
6561
8464
5184
1296
36
121
484
1089
1521
1936
3025
4489
3721
1089
64
2704
7056
7921
4096
841
1
169
576
1024
1521
2025
3249
4489
3481
729
196
3364
7396
7569
3600
576
0
225
676
1225
1600
2025
3364
4761
3136
441
484
4225
8281
7396
3025
441
0
225
729
1296
1521
2209
3844
4761
2809
256
676
4489
8464
7569
2916
324
16
289
900
1521
1764
2401
3969
4356
2116
81
1089
5041
8281
6561
2209
196
25
361
961
1369
1681
2601
4489
4225
1600
1
1764
5929
8100
5476
1521
64
100
484
1024
1369
1764
2809
4356
3844
1225
25
2401
6724
8100
4356
900
4
169
576
1089
1444
1764
2916
4489
3600
961
121
3025
7396
7921
3969
676
0
196
676
1225
1521
1849
3136
4761
3364
625
289
3721
7921
7744
3600
529
0
169
576
1369
1849
2304
3481
4489
2916
441
529
4356
8464
7396
2916
361
4
256
729
1296
1600
2304
3969
4624
2601
225
729
4761
8649
7225
2704
256
36
361
900
1369
1681
2500
4096
4225
1936
25
1369
5329
8100
5929
1849
121
64
441
1024
1369
1764
2809
4356
3969
1369
16
2304
6724
8100
4761
1089
9
169
576
1089
1369
1849
3249
4624
3481
784
169
3025
7056
7569
3844
729
4
169
729
1444
1521
1681
3025
4356
3364
625
256
3481
7569
7569
3364
441
1
196
625
1156
1521
2116
3721
4761
2916
361
529
4096
8281
7569
3249
441
1
324
961
1444
1521
2116
3600
4624
2601
196
729
4489
8281
7396
2916
324
16
400
1024
1521
1681
2500
3969
4356
1936
25
1444
5625
8281
5776
1681
100
81
441
1024
1444
1764
2809
4356
3721
1225
36
2500
6241
7569
4761
1156
16
144
576
1156
1521
1849
3249
4761
3721
841
169
3249
7744
7921
3721
529
1
225
625
1156
1521
1936
3364
4624
3136
441
400
3969
8100
7569
3249
441
4
256
729
1444
1849
2209
3600
4356
2500
196
676
4489
8281
7225
2809
289
16
324
900
1444
1681
2401
3969
4624
2304
64
1156
5184
8649
6724
2209
169
49
400
1024
1369
1764
2704
4225
4096
1600
0
2025
6241
8281
5184
1369
36
100
529
1089
1444
1849
3136
4900
3844
961
81
2704
6889
7921
4225
784
1
144
529
1024
1369
1849
3136
4489
3481
841
100
2916
7569
8464
4096
625
0
196
676
1225
1600
2116
3481
4761
3249
529
400
4096
8281
7921
3481
484
1
256
729
1296
1681
2304
3844
4761
2809
324
529
4489
8649
7569
3136
400
4
256
784
1369
1681
2401
3969
4761
2500
169
841
4900
8464
7056
2601
289
16
324
900
1600
2025
2704
4096
4225
1764
16
1444
5625
8281
5929
1849
81
64
441
961
1444
1764
2704
4225
4096
1444
0
2025
6084
8281
5329
1369
25
121
529
1089
1444
1849
3025
4489
3844
1089
81
3025
7396
8100
4096
784
4
169
625
1225
1521
1849
3364
4761
3600
784
225
3600
7921
7744
3721
625
0
196
676
1225
1600
2025
3600
4900
3249
441
484
4489
8649
7569
3025
400
4
225
676
1225
1681
2401
3969
4761
2704
256
676
4624
8464
7396
2916
361
9
324
841
1225
1600
2401
4096
4624
2401
121
961
4900
8281
6889
2401
225
36
361
961
1444
1764
2500
4096
4096
1849
9
1681
6084
8464
5929
1600
36
100
484
961
1444
1849
2809
4489
3969
1296
9
2209
6561
7921
4624
1089
16
144
529
961
1369
1849
3025
4624
3721
1024
100
3136
7396
8100
4096
729
1
169
625
1225
1600
2025
3364
4624
3364
676
289
3721
7744
7569
3600
576
0
169
625
1225
1681
2209
3721
4900
3025
400
484
4096
8281
7569
3136
484
4
324
841
1225
1600
2304
3844
4624
2401
196
784
4624
8464
7056
2601
256
16
324
841
1369
1681
2601
4096
4489
2025
36
1296
5476
8281
6241
2025
121
64
441
1024
1444
1764
2809
4356
4096
1369
9
2304
6724
8281
5041
1225
36
100
484
1156
1681
2025
3364
4624
3721
1089
81
3136
7744
7921
3969
729
1
144
576
1156
1521
2025
3364
4900
3481
625
324
3721
8100
7744
3481
529
0
225
676
1296
1600
2116
3721
4900
3025
361
576
4356
8464
7396
2916
361
9
289
729
1296
1681
2500
4096
4489
2401
169
784
4624
8464
7225
2704
256
16
324
841
1369
1764
2500
4096
4356
2025
49
1369
5476
8281
6084
1936
144
49
400
961
1444
1764
2704
4225
4096
1444
1
2025
6241
8100
5184
1296
36
121
529
1089
1444
1849
3136
4624
3721
1024
81
2916
7225
7921
4096
784
1
196
676
1225
1521
1849
3136
4489
3249
625
196
3136
7396
7921
3844
625
0
144
625
1369
1681
2025
3364
4624
3136
484
441
4096
8100
7396
3136
484
0
196
676
1225
1681
2401
3969
4761
2704
256
676
4489
8464
7569
2916
361
16
324
900
1369
1764
2500
4225
4489
2025
36
1296
5329
8281
6241
2025
144
49
400
961
1444
1764
2704
4225
4096
1521
0
1936
6241
8464
5625
1444
16
196
529
961
1296
1764
3025
4489
3844
1156
49
2704
7056
7921
4096
784
4
169
625
1225
1521
2025
3364
4489
3136
625
225
3364
7569
7744
3721
625
0
196
625
1225
1600
2025
3481
4761
3249
529
400
3969
8100
7744
3364
484
1
225
729
1296
1681
2304
3844
4624
2809
289
625
4489
8464
7225
2809
324
4
225
729
1296
1600
2401
4096
4761
2601
169
841
4761
8281
6889
2601
225
25
361
900
1369
1681
2601
4096
4356
1849
9
1600
5625
7921
5625
1681
100
49
361
900
1444
1764
2704
4356
3969
1521
1
2116
6400
8100
5184
1225
25
144
576
1156
1521
1849
3136
4624
3721
961
144
3136
7569
8100
4225
729
0
225
625
1024
1444
2025
3481
4761
3364
625
289
3721
7921
7744
3600
576
0
196
625
1225
1681
2304
3844
4761
2916
361
576
4225
8100
7396
3025
441
4
256
729
1369
1681
2401
3969
4624
2401
169
841
4761
8281
6889
2500
256
25
324
841
1369
1681
2500
4096
4225
1849
25
1369
5476
8281
6084
1849
121
64
441
1024
1369
1681
2809
4624
4096
1225
25
2209
6241
7921
4900
1225
25
144
625
1225
1600
1849
3249
4624
3600
961
121
3136
7569
7921
3969
729
1
169
625
1296
1681
1936
3249
4761
3481
625
400
4356
8464
7569
3136
441
0
196
784
1444
1681
2209
3721
4761
2809
225
784
4624
8464
7225
2809
324
16
324
841
1369
1764
2500
4096
4356
2116
81
1089
5184
8464
6561
2209
144
64
400
841
1296
1681
2704
4356
4225
1681
1
1764
5929
8281
5476
1444
49
100
441
1024
1444
1764
2809
4489
3969
1225
49
2704
7056
8100
4356
900
9
121
576
1156
1521
1849
3249
5041
3600
729
256
3481
7569
7744
3600
625
0
225
625
1225
1600
2025
3481
4761
3249
529
400
3969
7921
7744
3364
529
1
225
729
1225
1681
2304
3844
4900
2916
289
676
4624
8649
7396
2916
361
9
289
784
1369
1764
2401
3969
4624
2304
144
900
4900
8464
6889
2500
225
25
400
900
1369
1600
2401
4096
4624
2209
36
1600
6241
8649
6084
1764
100
81
484
1089
1521
1849
2916
4624
4225
1369
25
2601
7056
8464
4624
961
4
169
576
1089
1444
1849
3025
4489
3600
961
100
3136
7396
8100
3721
625
0
144
529
1089
1521
2025
3364
4900
3481
625
324
3844
8100
7744
3364
529
0
196
676
1225
1600
2116
3721
4761
3025
400
529
4096
8281
7744
3136
400
9
289
729
1225
1600
2401
3969
4761
2601
225
676
4489
8281
7225
2704
289
16
324
784
1296
1764
2500
4096
4356
2025
36
1369
5476
8100
6084
1936
121
100
625
1024
1225
1521
2809
4624
4096
1369
25
2401
6724
7921
4624
1024
16
144
576
1156
1444
1849
3136
4761
3721
841
196
3481
7744
7569
3481
576
1
169
625
1156
1521
2116
3481
4624
3025
441
484
4096
8100
7396
2916
324
4
256
784
1296
1681
2304
3721
4489
2500
225
729
4624
8649
7396
2809
289
25
361
900
1369
1764
2500
4225
4489
2116
64
1225
5476
8649
6400
1936
169
36
324
900
1444
1849
2809
4225
4096
1600
4
1849
6241
8464
5625
1521
49
81
441
1089
1600
1936
2916
4356
3844
1156
49
2500
6724
7744
4489
961
4
196
576
1089
1444
1849
3136
4624
3600
841
169
3249
7744
7744
3721
625
0
225
676
1156
1444
2025
3364
4761
3136
529
361
3844
8281
7921
3600
484
1
256
729
1225
1681
2304
3844
4761
2809
324
576
4356
8464
7569
3025
361
9
289
784
1296
1681
2401
4096
4761
2500
144
900
4900
8464
7056
2704
256
49
400
900
1296
1600
2401
4225
4624
2025
16
1600
5625
8464
5929
1849
100
100
529
1024
1444
1849
3025
4624
3969
1156
49
2704
7056
8100
4489
900
9
144
625
1156
1521
1849
3249
4624
3600
900
144
3136
7569
7744
3721
625
0
196
625
1156
1521
1936
3364
4624
3136
576
324
3969
8100
7569
3481
484
4
324
900
1296
1600
2116
3600
4624
2704
324
625
4356
8464
7744
3025
324
16
289
784
1444
1936
2601
3844
4225
2025
100
1024
5041
8281
6561
2209
225
25
361
961
1444
1764
2704
4356
4225
1681
1
1849
6084
8281
5625
1521
64
100
484
961
1369
1764
2916
4356
3844
1296
16
2304
6561
7921
4624
900
1
196
576
1089
1444
1764
2916
4356
3600
900
121
3025
7396
7921
3969
729
1
196
676
1225
1600
2025
3364
4624
3249
625
324
3844
8100
7921
3481
576
0
196
729
1296
1681
2209
3721
4761
2809
361
529
4225
8281
7569
3136
441
4
289
729
1296
1764
2500
3969
4624
2601
196
729
4624
8464
7056
2500
256
9
289
784
1296
1681
2304
3844
4489
2500
100
1225
5625
8464
6241
1936
100
81
400
961
1444
1764
2704
4225
3969
1444
9
2304
6561
8100
5041
1225
25
121
576
1225
1600
1849
2916
4489
3721
1089
81
3025
7569
8100
4096
784
1
196
625
1156
1521
1936
3364
4624
3364
676
225
3600
7744
7744
3481
529
1
225
729
1225
1600
2116
3600
4624
3025
400
529
4225
8464
7569
3136
400
4
256
841
1369
1681
2401
3969
4624
2500
169
784
4624
8464
7225
2601
289
16
324
841
1369
1681
2500
4225
4489
2025
36
1369
5476
8464
6084
1849
144
49
400
1024
1521
1849
2809
4356
3969
1296
16
2500
6889
8100
4624
1024
9
169
576
1089
1444
1764
3025
4489
3600
900
121
3025
7396
7744
3844
625
0
169
576
1156
1600
2116
3481
4624
3249
529
400
3969
7921
7744
3364
529
1
225
729
1296
1681
2209
3600
4761
2916
361
576
4356
8464
7569
3025
361
4
256
784
1369
1681
2401
4096
4761
2401
121
961
4900
8281
6889
2500
256
36
400
961
1521
1764
2500
4096
4225
1764
4
1600
5625
8100
5776
1600
64
100
484
900
1296
1764
2809
4096
3721
1225
25
2401
6724
8100
4624
961
0
256
625
1089
1444
1681
2809
4096
3364
900
100
2916
7225
7921
3969
576
9
289
676
1024
1444
1936
3136
4225
3025
529
324
3600
7396
7396
3481
441
9
289
729
1225
1600
2025
3249
4225
2704
324
529
4356
8464
7396
2916
289
49
441
900
1444
1764
2209
3481
4096
2116
100
961
4761
8281
6889
2401
169
64
441
961
1521
1764
2304
3600
3721
1521
4
1521
5329
7921
5776
1681
49
144
576
1156
1521
1681
2401
3844
3600
1089
49
2500
6724
7921
4624
841
9
441
841
1296
1444
1681
2401
3481
2809
625
225
3025
7056
7396
3721
441
49
400
841
1369
1521
1764
2601
3721
2500
324
529
4096
7921
7056
2704
169
100
484
961
1521
1764
2116
3136
3600
1849
49
1089
5041
8464
6724
2116
49
196
625
1089
1444
1681
2401
3600
3364
1156
9
1849
5776
8100
5625
1444
4
256
784
1369
1681
1681
2304
3364
2916
841
64
2209
6084
7744
4761
900
4
361
784
1225
1600
1764
2401
3249
2601
576
169
2809
6561
7396
3844
529
36
484
961
1444
1600
1764
2304
3136
2304
324
441
3844
7744
7225
3025
225
121
676
1296
1600
1681
1849
2809
3481
1849
64
1024
4900
8100
6400
2025
49
225
676
1225
1521
1600
2025
3249
3249
1225
1
1681
5625
8100
5625
1444
4
256
729
1225
1521
1681
2304
3249
2916
784
81
1936
5476
7569
5041
1024
1
400
900
1444
1681
1681
2209
3136
2601
625
144
2809
6889
7921
4225
576
36
484
1089
1600
1681
1681
2304
3249
2304
256
576
4096
7744
7056
2809
196
144
676
1156
1521
1681
1936
2809
3481
1849
64
1089
5041
8100
6241
2025
36
225
676
1156
1600
1681
2025
3025
3249
1225
1
1681
5625
8281
5776
1444
4
361
841
1296
1600
1600
2116
3136
2916
900
64
2025
5929
7921
5041
1024
1
400
841
1369
1600
1681
2209
3364
2916
676
196
2916
6889
7921
4356
676
36
529
1024
1521
1764
1849
2704
3481
2401
289
576
4096
7921
7396
2916
196
144
676
1156
1600
1681
1936
3025
3600
1936
81
1024
5041
8100
6400
2025
49
225
729
1156
1600
1681
2025
3025
3136
1156
9
1764
5476
7921
5625
1444
9
324
841
1296
1681
1681
2209
3249
3025
841
64
2209
6241
8100
5041
1089
1
400
961
1444
1764
1849
2304
3364
2809
676
196
2916
7056
8100
4225
576
49
529
1024
1444
1681
1849
2500
3481
2401
324
576
4225
8100
7396
3025
196
144
625
1156
1521
1764
2025
2916
3721
2025
81
1024
5041
8100
6400
2025
49
225
676
1225
1521
1600
2025
3136
3249
1225
4
1764
5625
8281
5776
1521
1
361
841
1296
1681
1681
2209
3136
3025
900
49
2209
6084
8100
5184
1089
1
441
1024
1521
1681
1600
2116
3364
2704
576
225
3136
7056
7921
4096
576
49
576
1024
1521
1681
1764
2704
3600
2401
289
625
4356
8100
7056
2704
169
144
625
1156
1521
1681
2025
3136
3600
1764
36
1225
5329
8281
6241
1849
25
256
729
1225
1600
1681
2025
3025
3136
1156
9
1849
5625
7921
5625
1444
4
361
841
1369
1681
1600
2116
3136
3025
841
81
2304
6084
7744
4900
961
4
400
900
1369
1681
1764
2304
3249
2809
676
196
2916
6889
8100
4356
676
36
529
1024
1521
1764
1849
2601
3481
2401
324
484
4225
8100
7744
3136
225
169
729
1296
1600
1600
1764
2809
3721
2116
144
900
5041
8649
6889
2304
64
225
676
1156
1521
1681
2025
3136
3364
1369
0
1521
5476
8100
5929
1681
16
289
784
1225
1600
1764
2209
3249
3136
961
49
2209
6084
8281
5329
1156
1
361
900
1444
1764
1849
2401
3481
2809
625
225
3136
7396
8100
4225
529
49
529
1089
1600
1681
1764
2704
3721
2401
289
625
4356
8281
7569
2916
169
169
676
1225
1600
1764
1936
3025
3721
2025
49
1156
5184
8281
6400
1936
49
196
625
1156
1600
1764
2116
3136
3249
1225
1
1764
5625
8281
5625
1444
4
324
784
1296
1600
1681
2116
3249
3025
900
64
2209
6084
8100
5041
961
4
400
841
1296
1600
1681
2304
3364
2809
676
169
2809
6889
7921
4356
676
36
529
1024
1600
1764
1849
2601
3481
2401
324
529
4096
8100
7744
3025
196
144
625
1089
1521
1764
2025
3136
3721
2116
81
1089
5184
8464
6724
2025
36
256
676
1024
1521
1600
2025
3136
3364
1369
0
1600
5625
8649
6241
1600
9
361
841
1296
1521
1600
2116
3249
3249
1024
49
2209
6241
7921
5041
1024
4
441
961
1521
1764
1764
2304
3249
2704
529
256
3249
7225
7921
3969
529
49
484
961
1521
1936
2116
2809
3481
2304
256
625
4356
8281
7569
2916
225
121
625
1156
1600
1849
2025
3025
3721
2025
49
1156
5041
8464
6724
2025
36
256
729
1225
1521
1600
2025
3249
3364
1296
4
1764
5625
8281
5929
1600
9
324
900
1444
1681
1764
2116
3249
3136
961
49
2304
6241
8100
5184
1089
1
324
900
1444
1764
1764
2304
3364
2916
676
196
3136
7056
8100
4356
625
49
576
1024
1444
1681
1764
2704
3600
2401
324
576
4225
7921
7225
2916
256
121
625
1156
1681
1849
2025
3136
3844
2025
81
1156
5329
8649
6889
2209
49
225
729
1156
1521
1764
2209
3364
3600
1296
4
1849
5929
8464
5929
1521
9
289
784
1369
1681
1764
2304
3481
3364
1024
81
2601
7056
8464
5041
961
0
289
784
1444
1849
1936
2500
3721
3136
841
144
3025
7569
8649
4624
729
25
441
1024
1521
1764
1936
2916
4225
2916
441
529
4489
8836
8100
3364
289
81
529
1089
1600
1849
2209
3481
4489
2601
196
841
5329
9409
7744
2809
169
121
576
1156
1600
1849
2500
3969
4096
1764
1
1764
6084
9216
6889
2025
49
196
729
1369
1764
1849
2500
3969
3721
1225
36
2500
7056
9025
5625
1156
0
324
900
1521
1849
2025
2704
3969
3249
784
169
3364
8100
8836
4761
729
9
361
961
1681
2025
2116
2916
4225
3136
529
400
4356
9025
8649
3721
361
64
484
1089
1600
1849
2209
3481
4624
2809
256
784
5329
9604
8281
3136
225
100
576
1225
1764
2025
2500
3844
4356
2025
25
1521
6241
9801
7396
2304
121
144
676
1296
1764
2116
3249
4624
4096
1225
49
2916
8100
9604
5476
1089
4
256
841
1521
1936
2209
3249
4624
3721
961
225
3844
9025
9216
4489
676
4
400
1024
1681
1936
2209
3481
4761
3364
529
529
4624
9604
8836
3721
361
49
484
1024
1681
1936
2500
3969
4900
2601
144
1156
5929
10404
8649
2809
144
121
576
1296
1849
2116
3025
4624
4489
1681
9
2704
7921
10404
7056
1764
16
289
961
1600
2025
2304
3600
5329
4356
1156
169
3969
9409
10201
5041
841
1
361
961
1600
2025
2401
3969
5776
4356
841
324
4356
9604
9409
4356
676
1
289
841
1521
1849
2500
4356
6084
3969
576
625
5929
12544
12544
6084
1296
25
196
961
1849
2500
3844
6400
7225
4096
361
1089
6889
12100
9801
3600
400
36
576
1521
2304
2916
4624
7225
6561
2500
1
2809
9409
12544
8464
2601
225
64
625
1600
2209
3025
5041
7744
6889
2304
49
4096
10816
12100
6724
1681
121
81
576
1369
1936
3025
5625
7569
5184
1089
324
5041
11449
11236
5329
1156
25
196
961
1681
2209
3481
6241
7056
3600
144
1764
8281
12769
9801
3481
361
36
625
1521
2401
3136
5184
8100
7225
2500
4
3600
10816
13456
8464
2500
225
49
676
1600
2401
3364
6084
8649
6724
1849
100
4761
11881
12996
6724
1600
100
81
784
1849
2704
3969
6561
7744
4624
529
900
6724
13225
11664
4900
841
0
324
1225
2116
2916
4489
7225
7225
3249
81
2304
9216
13225
9409
3136
324
25
529
1521
2209
3136
5329
8100
7056
2401
9
3844
10816
12996
7744
2116
144
64
625
1521
2304
3364
5929
8281
5929
1369
256
5041
12100
12544
6084
1225
25
225
961
1764
2500
4096
6889
7396
3844
256
1444
7744
12996
10609
3844
484
9
441
1296
2116
2916
5041
7569
7056
2704
0
3364
10609
13456
8464
2401
196
49
576
1600
2304
3249
5776
8464
6561
1849
100
4489
11664
12769
6724
1600
100
100
784
1681
2500
3844
6724
7921
4624
529
961
6561
12544
11025
4624
841
1
361
1225
1936
2704
4356
7056
7056
3136
64
2304
9216
12996
9025
2916
324
25
529
1444
2116
3025
5184
7921
6561
2209
16
3844
11025
12769
7396
1849
100
100
784
1681
2401
3721
6561
8281
5476
1089
400
5625
12544
12321
5929
1225
25
196
1024
1936
2601
4225
7225
7569
3600
121
2025
8649
12769
9409
3364
484
9
484
1369
2116
2809
4900
7569
7056
2601
0
3481
10609
12544
7569
2025
144
81
676
1600
2209
3136
5625
8100
5776
1296
196
4489
11449
12321
6241
1369
36
196
900
1764
2401
3600
6400
7396
3969
324
1296
7396
12769
10404
3969
625
4
441
1296
2025
2704
4489
7225
6724
2809
9
2809
9604
12544
8464
2601
225
64
576
1444
2116
3025
5184
7744
6400
2025
36
3844
10404
12100
6724
1600
100
100
729
1600
2209
3364
5929
7744
4761
784
529
5776
12100
11449
5184
961
4
289
1089
1849
2500
3969
6724
7225
3600
144
1849
8464
12769
9604
3364
361
25
529
1444
2209
2809
4761
7569
6724
2304
4
3481
10816
12996
7396
1849
121
49
625
1521
2304
3136
5476
7921
6084
1600
144
4624
11664
12100
6084
1296
36
196
900
1681
2304
3721
6561
7396
3844
289
1296
7225
12769
10816
4096
576
4
441
1369
2116
2809
4624
7056
6724
2704
4
3025
10000
12769
8100
2401
225
49
576
1444
2401
3481
5625
7921
6084
1681
81
4225
11236
12321
6724
1681
64
169
900
1600
2209
3364
5929
7569
4624
625
729
6084
12100
11236
4900
841
1
324
1156
1936
2601
4096
6724
7056
3364
81
2116
8649
12769
9216
3025
289
25
484
1444
2209
3025
5041
7569
6400
2209
4
3481
10404
12544
7569
2116
144
64
625
1521
2209
3136
5776
8281
6084
1444
196
4761
11449
12100
6084
1444
49
169
841
1681
2304
3721
6241
7396
4096
361
1156
6889
12321
10201
3969
529
1
324
1089
1849
2401
4096
6889
6724
2916
4
2916
9604
12321
8100
2500
225
64
625
1521
2304
3136
5184
7921
6561
2209
16
3844
10816
12544
7056
1764
100
100
729
1600
2304
3600
6084
7744
4900
784
576
6084
12769
11881
5184
900
1
324
1024
1849
2500
4096
6889
7225
3600
121
1936
8464
12996
9409
3249
400
16
529
1681
2304
2916
4900
7744
6561
2209
16
3721
10404
12321
7056
1849
121
81
676
1521
2209
3249
5929
7744
5329
1024
324
5184
11664
11664
5476
1089
9
256
1024
1681
2304
3721
6241
7056
3600
169
1764
7744
12321
9216
3136
400
16
484
1296
2025
2704
4624
7396
6561
2209
9
3481
10000
12100
7056
1936
100
121
841
1600
2209
3136
5476
7569
5329
1156
289
4900
11449
11449
5625
1156
9
256
900
1600
2116
3364
6084
7056
3844
289
1225
6889
12100
9801
3721
484
4
400
1225
1936
2500
4096
6724
6400
2704
16
2601
8836
12100
8100
2401
169
64
576
1444
2025
2809
4900
7225
5929
1849
64
3721
10000
11236
6400
1600
100
100
676
1521
2116
3364
5929
7396
4489
625
625
5776
11881
11025
4900
841
1
289
1089
1849
2401
3844
6561
7056
3364
121
1936
8100
12100
8836
2809
289
25
529
1369
2025
2809
4900
7225
6241
2025
25
3600
10404
12100
6889
1764
100
100
784
1681
2304
3249
5625
7396
4900
900
400
5184
11449
11236
5184
961
4
256
961
1681
2304
3481
5929
6889
3721
289
1156
6561
11664
9801
3844
576
4
400
1225
1936
2601
4096
6561
6241
2601
9
2704
9025
12321
8281
2601
196
64
576
1444
2116
2916
4900
7225
5929
1936
36
3721
10404
12100
6724
1600
49
144
784
1600
2209
3136
5476
7225
4900
900
361
5041
11236
11236
5184
961
9
225
900
1681
2209
3481
5929
6724
3600
256
1296
6889
11881
9604
3600
441
16
441
1156
1936
2601
4225
6724
5929
2304
1
2704
9025
12100
7921
2209
121
100
625
1444
2116
2809
4900
7396
5776
1600
100
3969
10404
11236
5929
1369
36
169
784
1600
2209
3249
5476
6889
4096
529
676
5776
11236
10201
4356
729
1
289
1024
1849
2401
3721
6241
6400
2916
64
1849
7921
11664
8281
2601
256
16
441
1156
1936
2601
4489
7056
6241
2116
9
3364
10000
12321
7225
1936
121
100
729
1600
2304
3249
5476
7569
5476
1225
256
4624
11236
11449
5476
1089
16
225
961
1764
2304
3600
6084
6724
3481
196
1521
7396
12100
9216
3249
441
9
400
1156
1849
2500
4225
6724
6241
2401
0
2916
9409
12100
7744
2116
144
64
576
1600
2500
3025
4900
7225
5776
1764
81
4096
10609
11664
6241
1444
49
144
841
1681
2401
3364
5776
7056
4356
625
676
5776
11881
10816
4761
841
1
289
1024
1849
2500
3844
6241
6561
3136
100
1936
8281
12321
8836
2916
289
49
529
1369
2025
2809
4761
7225
6084
2025
16
3481
9801
11664
6724
1764
81
121
676
1444
2116
3025
5329
7225
5184
1225
225
4761
11025
11449
5476
1089
16
196
961
1764
2401
3481
5776
6724
3481
225
1225
6889
11881
9604
3481
441
16
400
1156
1764
2500
4096
6561
6241
2401
0
2916
9216
11881
7569
2209
144
64
625
1521
2116
2916
4900
7396
5929
1681
81
3969
10404
11664
6241
1444
49
144
784
1521
2304
3249
5625
7225
4761
841
400
5184
11449
11236
5329
1089
16
256
1024
1764
2304
3721
6400
6724
3136
100
2025
8281
11881
8649
3025
361
25
529
1444
2209
2916
5041
7569
6400
2116
16
3481
10000
11664
6724
1600
64
121
729
1600
2209
3025
5329
7225
4900
961
324
4900
11025
11236
5329
1156
36
169
841
1600
2209
3364
5776
6561
3600
256
1225
6724
11449
9216
3249
400
16
441
1296
2025
2704
4356
6724
6241
2304
1
3136
9604
12100
7569
2025
121
100
676
1600
2209
3025
5041
7396
5776
1521
144
4225
10609
11449
5929
1296
36
144
729
1600
2304
3364
5776
6889
3969
441
784
5929
11449
10404
4489
676
4
361
1024
1849
2401
3600
6084
6561
2916
49
2116
7921
11449
8464
2809
256
49
625
1444
2116
2704
4624
7056
5929
1849
36
3721
10201
12100
6724
1681
81
100
729
1521
2304
3249
5476
7396
5184
1089
289
4900
11449
11449
5329
1024
9
256
1024
1849
2500
3844
6241
6724
3364
144
1600
7744
11881
8836
3025
441
4
400
1225
1936
2500
4225
6724
6241
2401
0
3025
9409
12100
7744
2209
144
81
625
1444
2209
2916
4900
7569
6084
1849
81
4096
10609
11664
6241
1444
49
144
784
1681
2304
3249
5625
7225
4356
625
625
5776
11449
10609
4761
900
4
289
1089
1849
2500
3844
6400
6724
3249
100
2025
8464
12321
8836
2916
289
25
529
1369
2116
2809
4761
7396
6241
2116
16
3721
10201
11881
6724
1764
81
121
729
1600
2209
3136
5476
7225
5041
961
361
5184
11449
11236
5184
961
9
225
961
1681
2304
3481
5929
7056
3969
324
1156
6889
12100
10000
3969
529
9
441
1296
2025
2601
4225
6561
6561
2809
9
2704
9216
12544
8464
2704
256
36
529
1444
2209
2916
5041
7569
6561
2209
16
3721
10404
12544
7056
1849
100
121
841
1681
2401
3481
5929
7744
5184
1024
400
5476
12321
12100
5625
1156
9
289
1024
1849
2500
3969
6724
7225
3600
121
2025
8836
13225
9409
3249
361
16
529
1444
2116
2916
5184
7744
6561
2304
9
3721
10201
12544
7396
1936
144
81
676
1521
2209
3249
5776
7921
5776
1444
169
4761
12100
12544
6241
1296
36
169
900
1849
2601
3969
6561
7396
3969
289
1369
7569
12996
10609
4096
529
16
484
1296
1936
2601
4761
7569
7225
2809
1
3249
10201
12996
8281
2401
169
81
729
1600
2116
2916
5329
7744
6241
1849
64
4225
11236
12544
6724
1600
64
121
784
1521
2304
3481
6241
7744
4624
625
729
6241
12100
11236
4900
841
1
324
1089
1936
2601
4356
6889
7056
3249
64
2209
8836
12769
9216
3025
324
36
529
1521
2116
2809
4900
7921
6889
2401
1
3481
10609
12769
7569
2025
169
49
625
1521
2304
3364
5929
8281
6084
1369
225
5041
12100
12321
6084
1369
49
169
961
1936
2500
3844
6561
7569
3969
289
1521
7744
12769
10201
3844
529
4
400
1296
2025
2704
4624
7396
6889
2704
4
2916
9801
12769
8281
2401
225
49
625
1521
2209
3025
5184
8100
6561
2025
49
4096
11236
12544
6889
1681
100
121
784
1681
2304
3600
6241
7921
5041
841
576
5929
12544
12100
5476
1089
9
289
1089
1936
2601
4225
7225
7396
3600
144
2025
8836
13456
9801
3364
441
9
484
1444
2209
3025
5184
7921
7056
2601
0
3481
10816
13225
7921
2116
144
49
576
1369
2209
3249
5929
8464
6400
1600
144
4624
11664
12544
6400
1444
64
144
784
1681
2500
4096
6889
7744
4225
400
961
6889
13225
11664
4900
841
0
484
1369
2116
2601
4624
7569
7056
3025
81
2025
8649
13689
9801
3249
361
36
576
1444
2304
3136
5476
8281
7056
2304
9
3721
10816
13225
7921
2116
169
64
625
1521
2304
3364
6241
8464
6084
1369
225
5184
12544
13225
6400
1444
64
169
961
1849
2601
4225
7225
8100
4356
361
1444
8100
13924
11236
4225
625
4
400
1296
2209
3025
5184
8100
7744
3025
4
3364
10816
13456
8100
2304
256
25
484
1444
2304
3249
5776
8281
6889
2209
64
4356
11881
13225
7056
1764
121
121
841
1764
2500
3721
6561
8281
4900
576
900
6889
13225
11881
5184
961
4
324
1225
2025
2916
4761
7396
7396
3364
64
2500
9604
13924
9604
3136
361
25
576
1521
2401
3364
6084
8836
7396
2500
9
3844
11449
13456
8100
2304
225
49
676
1600
2401
3481
6241
8464
6084
1369
225
5329
12544
12996
6400
1444
49
225
1024
1936
2601
4356
7225
8100
3969
196
1849
8649
13456
10201
3721
529
4
529
1521
2304
3025
5184
8100
7225
2601
1
3481
10404
12996
8281
2500
256
49
625
1521
2401
3364
5929
8464
6400
1764
121
4761
11881
12996
6561
1600
81
144
900
1849
2500
3844
6561
7744
4489
529
1024
7056
13225
11236
4761
729
0
484
1296
2116
2809
4761
7744
7396
3025
25
2809
10201
13689
9025
2704
256
36
625
1681
2401
3136
5476
8281
6889
2025
49
4096
11449
12769
7225
1849
121
100
729
1600
2500
3844
6724
8100
5041
676
729
6561
12769
11664
5041
961
4
289
1156
1936
2601
4225
7225
7569
3600
100
2209
9025
13456
9604
3136
361
25
529
1369
2116
3025
5476
8649
7225
2401
9
3844
11236
13456
8100
2116
169
64
676
1600
2401
3600
6400
8649
6084
1369
196
4900
12544
13225
6561
1521
49
169
1024
1849
2500
4096
7056
7921
4225
289
1764
8281
13225
10404
3969
576
1
484
1296
2209
3025
5329
8281
7396
2704
1
3364
10609
13225
8281
2401
225
49
625
1521
2304
3364
5929
8649
6561
1681
144
4761
11881
12996
6724
1764
81
144
900
1764
2500
3969
6889
8100
4761
484
1089
7225
13456
11449
4624
729
0
361
1225
2209
2916
4900
7921
7569
3136
9
3136
10201
13689
8836
2704
289
25
529
1444
2401
3364
5929
8649
7225
2304
36
4096
11664
13456
7569
1936
121
100
729
1681
2401
3721
6561
8281
5329
900
576
6084
12544
12321
5929
1225
16
289
1089
2025
2704
4489
7396
7569
3721
121
2209
9216
13456
9604
3136
400
9
484
1521
2304
3136
5329
8281
7396
2601
1
3721
11236
13456
8100
2209
196
64
625
1600
2304
3364
6084
8464
6241
1444
256
5329
12321
12996
6400
1444
49
196
1024
1936
2601
4096
7056
7921
4096
289
1600
8281
13456
10609
3969
529
4
441
1296
2116
3025
5184
8100
7396
2916
0
3364
10609
13225
8464
2500
256
36
625
1521
2304
3364
5929
8649
6724
1936
100
4489
11881
13225
6889
1681
100
81
784
1764
2601
3844
6561
7921
4761
625
784
6724
13225
11881
5041
900
0
400
1225
1936
2704
4356
7396
7569
3481
100
2304
9604
13689
9604
3136
361
25
529
1521
2304
3249
5776
8464
7225
2401
25
3969
11449
13456
7744
2025
144
81
676
1600
2304
3600
6400
8649
5776
1156
361
5625
12544
12544
5929
1225
25
225
1024
1936
2601
4225
7225
7569
3721
121
2116
9025
13456
9801
3249
361
16
529
1444
2209
3136
5476
8464
7056
2500
9
3844
11025
13225
7921
2209
144
81
676
1600
2304
3364
6084
8464
6084
1369
256
5184
12544
12769
6400
1369
49
196
1024
2025
2704
4225
7056
7744
3969
225
1764
8649
13456
10201
3721
484
9
484
1444
2209
3025
5184
8281
7225
2704
0
3364
10609
13689
8464
2401
225
49
625
1521
2304
3364
6084
8649
6561
1681
144
4900
12100
13225
6724
1600
49
169
900
1764
2401
3721
6724
7921
4624
529
1024
7056
13225
11236
4624
784
0
361
1225
2025
2809
4624
7744
7569
3249
36
2809
10000
13689
8836
2704
256
36
576
1521
2401
3249
5625
8464
7056
2025
64
4225
11664
13225
7396
1849
100
100
841
1681
2500
3844
6724
8100
5184
784
676
6400
12996
12100
5329
1024
9
289
1156
2025
2704
4489
7225
7569
3481
100
2304
9604
13924
9801
3249
361
36
576
1521
2304
3136
5476
8464
7396
2500
9
3969
11236
13456
7921
2116
169
81
729
1600
2500
3600
6400
8649
6084
1296
289
5329
12769
12996
6400
1369
36
196
961
1764
2500
3969
7056
8100
4225
324
1600
8464
13924
10816
3969
529
9
529
1444
2209
2809
5041
8100
7396
2916
4
3249
10609
13456
8649
2500
256
36
625
1600
2304
3364
6084
8836
6724
1849
100
4761
12321
13225
7056
1600
81
169
900
1764
2401
3721
6561
8100
4624
529
1089
7225
13225
11449
4761
784
0
361
1296
2116
2809
4624
7396
7396
3136
36
2704
10000
13456
9216
2809
289
36
625
1600
2401
3249
5776
8649
7056
2116
64
4489
11881
13456
7396
1849
100
100
841
1681
2500
3844
6724
8464
5184
784
676
6400
13225
12321
5329
1024
4
289
1089
2025
2704
4489
7396
7569
3600
81
2304
9216
13456
9801
3249
361
36
529
1444
2304
3136
5329
8281
7225
2601
4
3844
11025
13456
7921
2209
144
64
625
1521
2401
3481
6241
8464
6084
1296
256
5184
12544
12769
6241
1369
36
196
900
1849
2704
4356
7225
7921
4096
289
1600
8464
13689
10201
3721
625
0
324
1296
2116
2916
5041
8100
7569
3025
1
3136
10201
13225
8649
2500
225
49
625
1521
2116
3025
5929
9409
7396
2025
100
4624
12321
13456
7225
1764
121
121
841
1764
2500
3969
6889
8281
4761
576
1089
7396
13689
11664
4624
784
0
441
1369
2209
2916
4761
7569
7396
3136
25
2809
10201
13456
9025
2704
256
36
625
1600
2304
3249
5776
8649
6889
2116
49
4356
11881
13456
7569
1849
100
100
784
1681
2401
3844
6889
8464
5041
729
729
6724
13225
12100
5329
1089
16
324
1225
2209
2916
4761
7744
7569
3249
36
2809
10201
13225
8649
2809
324
16
576
1600
2401
3364
5929
8836
7056
1936
64
4356
11664
13456
7569
2025
121
100
841
1681
2401
3969
6889
8464
5184
729
784
6561
12996
11881
5329
1089
9
289
1225
2025
2809
4489
7569
7744
3481
100
2401
9604
13689
9409
3025
324
16
529
1600
2500
3249
5476
8464
7056
2401
25
4096
11449
13456
7744
2116
144
64
729
1681
2500
3721
6561
8649
5776
1089
441
5929
12996
12769
6084
1296
25
225
1156
2116
2704
4356
7569
7744
3721
121
2401
9801
13689
9604
3136
361
25
576
1521
2304
3136
5625
8649
7225
2401
16
3969
11449
13456
7744
2116
144
81
729
1681
2401
3721
6400
8281
5625
1089
361
5625
12996
12769
6084
1225
16
256
1089
1936
2809
4489
7396
7921
3721
100
2401
9604
13924
9801
3249
361
25
529
1444
2304
3136
5625
8464
7396
2704
1
3844
11236
13456
8100
2209
169
64
676
1600
2401
3600
6400
8649
6084
1369
256
5329
12996
13225
6241
1369
36
225
1089
2025
2601
4356
7225
8100
3969
169
1936
9025
13689
10404
3721
529
9
529
1521
2304
3136
5329
8281
7396
2601
1
3600
11025
13456
8281
2304
169
49
676
1600
2401
3481
6241
8649
6241
1521
225
5184
12544
13225
6561
1444
49
196
1024
1936
2601
4225
7225
7921
4096
289
1681
8649
13689
10609
3844
576
9
484
1369
2209
3025
5329
8281
7225
2704
0
3481
11025
13689
8281
2500
225
64
676
1600
2304
3364
5929
8649
6561
1681
121
4624
12100
13225
6724
1600
64
144
900
1764
2401
3844
6724
8100
4624
484
1024
7225
13225
11449
4761
784
0
441
1369
2116
2809
4624
7396
7396
3136
25
2809
10000
13456
8836
2704
256
36
676
1600
2304
3136
5625
8464
6724
2025
64
4225
11449
12996
7396
1936
121
100
729
1681
2500
4096
6889
8100
4761
625
729
6561
12996
11881
5184
900
1
324
1156
2025
2601
4225
7225
7921
3844
144
2209
9409
13689
9604
3249
361
25
625
1600
2304
3025
5184
8281
7225
2401
9
3844
11236
13456
8100
2209
169
81
676
1521
2209
3481
6241
8649
6084
1444
225
5041
12769
13225
6400
1296
25
225
1089
1936
2704
4096
7225
8100
3969
144
2025
9025
13456
10000
3600
484
4
484
1369
2209
3136
5329
8281
7225
2601
0
3600
11236
13689
7921
2116
196
36
576
1521
2401
3364
5929
8281
6241
1600
169
4900
12100
12996
6561
1521
49
169
961
1936
2601
3969
6889
8100
4489
361
1296
7744
13456
11025
4225
676
0
400
1369
2209
2916
4761
7744
7396
3025
16
3025
10404
13456
9025
2601
225
64
625
1444
2209
3249
5929
8464
6724
1936
64
4356
11881
13456
7396
1849
100
121
841
1764
2500
3844
6724
8100
5041
729
729
6561
12996
12100
5184
900
4
324
1225
2025
2809
4356
7225
7569
3600
100
2209
9216
13689
9604
3249
361
25
576
1444
2116
3136
5476
8464
7225
2401
4
3844
11025
13456
7921
2209
169
64
676
1681
2401
3481
6084
8464
6084
1444
225
5041
12544
12996
6561
1444
64
196
1024
1936
2601
4096
7056
8100
4096
256
1681
8464
13689
10609
3721
529
4
484
1369
2209
2916
5041
8100
7396
2809
1
3364
10609
13456
8464
2500
225
49
625
1600
2401
3364
5929
8649
6724
1681
144
4761
12100
12996
6724
1681
81
144
841
1849
2704
3969
6724
7921
4624
484
1089
7225
13456
11449
4761
729
0
324
1296
2209
3025
4900
7744
7396
3249
25
2809
10201
13689
9025
2704
289
25
576
1521
2401
3364
5929
8649
6889
2025
64
4356
11664
12996
7396
1936
169
81
784
1681
2401
3844
6561
8281
5329
900
529
5929
12769
12321
5625
1156
16
289
1156
1849
2704
4489
7396
7396
3721
144
2304
9801
13924
9604
3025
324
36
576
1521
2209
3136
5776
8836
7396
2304
64
4225
11025
12769
7396
2209
196
100
1024
1936
2500
3600
6241
7921
5041
784
676
6241
12769
11881
5476
1024
16
256
1089
2025
2704
4489
7396
7569
3600
81
2304
9409
13689
9604
3025
289
49
529
1444
2304
3136
5476
8464
7225
2401
16
3844
11236
13225
7744
2025
144
81
729
1600
2401
3600
6400
8464
5776
1156
361
5625
12769
12996
6400
1444
36
196
1024
1936
2704
4356
7396
8100
3969
196
1936
9025
13689
10201
3481
484
9
484
1521
2304
3136
5329
8281
7225
2601
1
3600
10816
13456
8100
2209
169
64
729
1600
2116
3249
5776
8281
6241
1521
196
4900
12321
12996
6400
1444
49
196
961
1936
2500
3969
6889
7921
4356
324
1444
8100
13689
11025
4225
625
4
441
1369
2209
3025
4900
7921
7569
3025
4
3136
10404
13456
8836
2601
256
49
625
1521
2401
3481
5929
8464
6724
1936
81
4489
11881
13225
7056
1681
81
121
784
1600
2304
3721
6561
8100
5184
841
676
6561
13456
12321
5476
1024
4
324
1156
2116
2809
4489
7569
7744
3600
100
2304
9604
14161
9801
3249
361
25
576
1521
2304
3136
5625
8836
7569
2500
16
3969
11449
13456
7744
2025
169
100
784
1600
2304
3600
6561
8649
5625
961
529
5929
12769
12321
5625
1156
16
256
1089
1936
2704
4356
7396
7744
3481
100
2401
9604
13689
9216
2916
289
25
529
1444
2209
3249
5776
8649
7056
2304
25
4096
11664
13689
7744
2025
121
81
729
1681
2401
3721
6400
8464
5776
1156
400
5625
12996
12769
6084
1296
36
256
1024
1849
2704
4356
7396
7921
3721
121
2209
9409
13924
10000
3249
361
16
484
1444
2304
3249
5929
8649
7225
2304
16
3969
11236
13456
7744
2116
144
81
729
1600
2304
3721
6561
8464
5776
1089
361
5776
12996
12769
6084
1225
16
256
1089
1849
2601
4356
7396
7744
3721
121
2209
9216
13456
9604
3249
361
16
529
1521
2209
3249
5625
8649
7225
2401
16
3969
11025
13225
7921
2304
169
81
784
1681
2401
3721
6561
8464
5625
1089
361
5625
12769
12769
6084
1225
25
225
1089
2025
2704
4356
7396
7744
3721
144
2209
9216
13924
10000
3249
361
16
529
1521
2209
3249
5776
8464
7225
2401
16
3969
11236
13225
7744
2116
121
121
676
1521
2304
3600
6400
8281
5625
1156
400
5929
13456
12996
5929
1225
16
256
1156
2025
2704
4356
7396
7569
3721
100
2304
9409
13689
9409
3025
361
25
529
1444
2209
3136
5476
8464
7225
2401
9
3969
11236
13225
7921
2209
144
64
676
1600
2304
3481
6241
8649
6084
1296
324
5625
12996
12996
6084
1296
25
225
1024
1936
2704
4356
7396
7921
3969
196
1849
9025
14161
10609
3844
529
1
484
1521
2500
3249
5184
8281
7225
2601
1
3481
10816
13225
8100
2401
196
49
625
1600
2401
3481
6241
8649
6400
1600
169
5041
12321
12996
6724
1444
49
169
961
1849
2601
3969
6724
8100
4356
361
1296
7744
13456
11236
4356
676
0
324
1296
2209
3025
4900
7921
7569
3136
16
3025
10201
13456
8836
2500
225
49
576
1444
2304
3249
5929
8464
6724
1936
81
4489
11881
13225
7056
1681
100
100
784
1764
2401
3844
6561
8100
4900
625
841
6724
12996
11664
5041
841
1
324
1156
2025
2704
4489
7396
7569
3600
64
2401
9604
13456
9409
3136
361
25
576
1521
2401
3136
5476
8281
7225
2401
16
3721
11025
13225
7744
2116
169
64
729
1681
2401
3481
6241
8281
5625
1156
361
