676
49
225
676
441
144
144
361
676
1296
2116
2304
1369
225
100
1089
1681
784
0
289
289
144
144
256
324
576
900
729
144
81
1156
2809
3721
2304
289
81
324
361
576
1089
1444
1849
2025
1521
400
81
1681
4225
5476
3721
900
36
4
64
361
1024
1936
2809
3844
3481
1681
121
529
2704
4624
3600
1225
256
144
64
4
256
841
1849
3136
3364
2025
324
121
1444
2704
1936
484
36
25
64
4
49
256
625
1369
1849
1225
225
64
1024
2116
1681
289
16
49
16
36
169
361
576
1024
1296
676
36
289
1681
3025
2500
576
4
144
121
196
529
900
1296
1764
1764
900
36
441
2304
4096
3844
1296
49
16
25
144
484
1089
1681
2401
2809
1681
256
169
1849
4096
3969
1521
121
1
0
25
289
784
1369
2209
2916
2025
484
36
1369
3249
3364
1296
100
1
4
1
144
484
961
1764
2500
1936
529
9
1024
2809
3136
1444
121
0
1
9
121
400
729
1369
2116
1849
729
0
841
2704
3364
1936
225
4
25
25
121
441
784
1369
2116
1936
784
9
625
2304
3481
2401
441
1
49
25
100
361
676
1156
1849
1936
961
49
441
2116
3600
2704
529
1
64
25
100
361
841
1369
2025
2025
1024
64
361
2209
4225
3481
961
1
64
49
121
484
961
1521
2209
2601
1444
121
361
2401
4761
4356
1369
36
25
36
100
400
900
1600
2500
3136
2116
400
121
2025
4761
4624
1764
121
1
4
49
256
676
1156
2209
2916
2209
576
49
1521
3969
4225
1600
81
25
36
64
225
529
1024
1936
2601
1849
361
121
1764
4225
4225
1521
49
64
100
144
361
841
1444
2209
2704
1600
256
256
2401
5041
4900
1764
64
49
121
256
625
1089
1681
2601
3025
1764
225
289
2601
5476
4900
1764
100
16
49
144
529
1024
1764
2809
3136
1849
256
289
2500
5041
4356
1369
49
9
16
121
441
841
1444
2401
2809
1764
256
225
2209
4624
4096
1156
25
36
49
144
361
729
1296
2209
2500
1444
144
400
2500
4761
3969
961
0
100
100
169
529
900
1444
2304
2601
1369
100
484
2809
5184
4225
1156
9
81
100
256
576
1089
1681
2601
2809
1369
64
625
3136
5329
4225
1089
4
64
100
196
576
1089
1681
2704
2809
1369
81
529
3025
5041
4096
1024
1
64
81
169
441
900
1521
2500
2809
1521
144
400
2601
4900
4096
1156
16
49
64
196
529
961
1521
2304
2704
1444
121
484
2809
5041
4096
1089
9
64
64
169
484
961
1521
2500
2704
1444
121
441
2704
5041
4225
1156
16
49
81
196
529
1024
1600
2500
2601
1369
81
529
2916
5041
4096
1089
4
81
100
225
529
961
1521
2401
2704
1369
81
529
2916
5041
4225
1089
4
81
100
225
576
1024
1600
2601
2704
1444
81
625
3136
5329
4225
1089
4
100
121
256
576
1024
1600
2601
2704
1444
81
625
3136
5329
3969
1024
4
64
64
196
529
961
1600
2500
2809
1521
100
484
2916
5041
3969
961
1
64
64
169
441
900
1521
2401
2601
1521
144
400
2704
5041
4225
1156
9
64
100
225
576
961
1521
2401
2704
1444
81
529
3025
5329
4356
1156
9
81
100
225
576
1024
1600
2500
2809
1521
121
529
3025
5476
4356
1225
9
49
100
225
576
1089
1764
2704
2809
1521
81
625
3136
5329
4096
1024
4
64
49
144
529
961
1681
2601
2916
1600
121
484
2916
5184
4096
1089
9
49
64
196
529
900
1521
2401
2809
1521
169
441
2704
5041
4225
1156
16
36
81
196
576
1024
1600
2500
2704
1444
81
625
3136
5329
4225
1156
9
81
100
256
625
1089
1764
2704
2916
1444
81
625
3025
5329
4225
1089
4
64
100
196
576
1024
1681
2704
2916
1444
100
625
3249
5476
4096
961
1
81
100
225
576
961
1521
2500
2809
1444
100
576
3025
5329
4225
1089
4
81
100
196
576
961
1600
2601
2704
1444
81
625
3136
5329
4096
1089
4
81
121
256
576
1024
1600
2601
2809
1444
64
676
3249
5476
4225
1024
1
100
100
225
576
1024
1764
2704
2809
1369
49
729
3364
5476
3969
841
0
81
100
196
529
1024
1681
2704
2809
1369
64
625
3136
5329
4096
1024
1
100
121
256
625
1024
1681
2704
2809
1296
36
784
3481
5476
3844
841
0
81
121
225
576
1024
1681
2704
2809
1296
49
729
3364
5476
3969
900
1
100
121
225
576
1024
1681
2704
2809
1369
49
729
3364
5329
3844
900
0
64
100
225
576
1024
1681
2601
2809
1444
64
784
3364
5476
3969
900
0
81
100
225
576
1024
1600
2601
2704
1369
64
625
3249
5476
4225
1089
1
100
121
256
625
1089
1849
2809
2809
1296
25
900
3600
5625
3969
841
0
100
121
225
576
1089
1764
2809
2916
1296
36
841
3600
5625
3969
841
0
100
121
256
625
1089
1849
2809
2809
1296
25
961
3721
5625
3844
729
1
100
121
225
529
1024
1764
2809
2809
1225
9
1024
3721
5476
3600
676
4
100
121
289
625
1089
1849
2809
2704
1089
1
1156
3969
5625
3481
625
9
121
144
289
625
1089
1936
2916
2704
1089
1
1156
4225
5776
3481
576
4
100
121
289
676
1156
1936
2916
2704
1024
0
1225
3969
5329
3249
529
4
81
100
256
625
1156
2025
3025
2704
1089
1
1225
4096
5625
3481
576
4
121
144
289
676
1156
2025
2916
2704
961
0
1156
4096
5625
3600
625
4
121
144
289
676
1156
1936
2916
2704
1024
1
1225
4096
5625
3481
576
4
121
144
289
625
1156
2025
3025
2704
1089
0
1225
4225
5625
3364
529
4
100
144
324
676
1156
1936
3025
2601
961
0
1225
4096
5625
3481
576
9
121
144
289
625
1089
1936
2916
2704
1089
0
1225
4096
5625
3481
576
9
144
169
324
676
1089
2025
3025
2601
1024
0
1296
4356
5625
3481
576
4
100
121
289
729
1225
2116
3136
2704
961
0
1225
4096
5625
3481
576
4
121
121
289
676
1089
2025
3025
2704
1024
0
1296
4225
5625
3364
529
16
121
169
324
676
1156
2025
3025
2601
900
1
1369
4225
5625
3249
529
9
100
121
289
729
1156
2025
3025
2601
961
0
1296
4096
5476
3481
576
4
121
144
289
676
1156
2025
3025
2704
1024
0
1296
4096
5625
3481
576
9
121
144
324
676
1156
2025
3025
2704
961
0
1296
4225
5776
3481
576
9
121
144
289
676
1089
2025
3025
2704
1024
0
1225
4225
5776
3481
576
9
121
144
289
676
1156
2025
2916
2601
961
0
1225
4096
5625
3481
576
4
121
144
289
676
1089
1936
2916
2704
1089
1
1156
4096
5625
3481
625
4
100
121
289
676
1225
2025
2916
2704
1089
1
1225
4096
5625
3481
625
4
100
121
289
676
1225
2025
3025
2809
1024
0
1225
4225
5776
3481
576
4
121
144
289
676
1089
2025
3025
2704
1024
0
1296
4225
5625
3364
484
9
121
144
324
625
1089
2025
3025
2601
961
0
1296
4225
5625
3364
529
4
121
144
289
676
1156
1936
2916
2704
1024
0
1225
4096
5625
3481
576
4
121
144
324
676
1156
2025
3025
2601
961
0
1225
4096
5625
3481
576
9
121
144
289
625
1089
2025
3025
2704
1024
0
1296
4356
5625
3481
576
4
100
144
289
729
1156
2025
3025
2704
961
0
1225
4225
5625
3481
576
4
121
144
324
676
1156
2025
3025
2601
961
0
1225
4096
5625
3600
625
4
144
144
289
676
1089
1936
2916
2601
1024
1
1156
3969
5625
3481
625
4
121
144
324
676
1089
1936
3025
2704
1024
0
1296
4225
5776
3721
625
9
121
144
324
676
1156
1936
3025
2704
1024
0
1296
4225
5625
3249
529
9
121
144
324
676
1156
1936
2916
2601
961
0
1296
4356
5625
3481
576
4
121
144
289
729
1156
2025
3025
2601
961
0
1296
4096
5625
3600
625
9
144
144
324
729
1156
2025
2916
2704
1024
0
1296
4096
5625
3481
529
9
121
144
289
676
1156
2025
3025
2601
961
0
1156
4096
5625
3481
576
4
121
144
289
676
1089
2025
2916
2704
1024
0
1225
4096
5625
3481
576
9
121
144
289
676
1089
1936
2916
2601
1024
0
1225
3969
5476
3481
576
4
100
144
289
676
1156
2025
3025
2704
1024
0
1296
4096
5476
3364
529
4
100
144
289
676
1089
2025
2916
2601
961
0
1296
4096
5476
3249
576
4
100
121
289
729
1225
2025
3025
2704
961
0
1225
4096
5625
3481
625
4
100
144
324
676
1156
2025
2916
2601
961
0
1225
3969
5476
3364
576
4
121
144
324
625
1089
1936
2809
2601
1024
0
1225
3969
5476
3481
576
4
121
144
289
676
1089
1936
2809
2601
1024
1
1225
3969
5329
3364
529
4
100
121
289
676
1089
2025
2916
2704
1024
0
1296
4096
5476
3249
484
9
100
121
289
676
1089
1936
2916
2704
961
0
1296
4096
5476
3249
529
4
100
121
289
729
1156
2025
2916
2601
961
0
1296
3969
5476
3364
576
4
100
121
289
676
1156
1936
2916
2704
1024
0
1296
4225
5476
3249
529
9
100
121
289
676
1156
2025
3025
2601
961
0
1225
4096
5476
3364
576
4
100
121
289
676
1156
2025
2916
2601
1024
1
1156
4096
5625
3364
529
9
100
121
289
625
1089
1936
2916
2704
1024
0
1296
4096
5476
3249
484
9
100
121
289
676
1089
1936
2916
2704
1024
0
1296
4225
5625
3249
484
9
100
144
324
676
1156
2025
3025
2601
900
0
1296
4096
5476
3481
576
4
100
144
324
729
1089
1936
2916
2601
1024
0
1296
4225
5476
3249
529
9
121
144
324
676
1156
1936
2916
2500
1024
0
1296
4225
5625
3364
484
9
100
144
289
729
1156
2025
3025
2601
961
0
1225
4225
5625
3364
529
4
100
121
289
676
1156
2025
2916
2704
1024
0
1296
4225
5625
3249
529
9
100
144
324
676
1089
2025
3025
2601
961
0
1225
4096
5625
3364
576
9
121
121
289
625
1089
2025
2916
2704
1024
0
1296
4225
5625
3249
529
9
121
144
324
676
1156
2025
3025
2601
961
0
1225
4225
5625
3481
576
4
121
144
289
676
1089
1936
2916
2704
1089
1
1225
4225
5625
3481
576
4
100
121
289
676
1225
2025
3025
2704
1024
0
1296
4225
5625
3249
529
4
100
144
324
729
1156
2025
3025
2601
961
0
1296
4225
5625
3481
576
9
121
144
324
676
1089
2025
3025
2601
961
0
1225
4096
5625
3481
625
4
121
144
289
676
1156
2025
2916
2704
1024
0
1296
4096
5625
3364
576
9
100
144
324
729
1156
2025
3025
2704
1024
0
1296
4225
5776
3481
576
4
100
121
289
729
1156
2025
3025
2601
961
0
1225
4225
5625
3481
576
9
121
144
289
676
1089
2025
3025
2704
1024
0
1296
4225
5776
3481
576
9
121
144
289
676
1156
2025
3025
2601
1024
0
1225
4225
5776
3364
529
9
121
144
289
676
1156
2025
3025
2704
961
0
1369
4225
5776
3481
576
4
100
121
324
729
1156
2025
3025
2601
961
0
1296
4096
5625
3481
576
9
100
121
289
676
1225
2025
3025
2704
1024
0
1296
4225
5625
3364
529
4
100
121
324
729
1156
2116
3136
2704
1024
0
1444
4489
5776
3481
529
9
121
144
324
729
1156
2116
3136
2704
961
1
1369
4225
5776
3364
529
9
100
121
324
676
1225
2025
3025
2704
1024
0
1369
4356
5776
3364
529
9
121
169
324
676
1156
2116
3249
2704
900
4
1444
4489
5625
3364
529
16
169
169
361
676
1156
2025
3136
2704
900
1
1444
4489
5776
3364
529
4
100
144
289
676
1225
2025
3025
2704
1024
0
1369
4356
5776
3249
484
9
100
144
324
676
1225
2116
3136
2704
961
1
1369
4356
5776
3364
529
9
121
144
324
729
1225
2116
3249
2809
1024
1
1521
4356
5776
3364
484
4
100
144
324
729
1225
2116
3025
2704
961
1
1369
4356
5776
3249
484
4
100
121
324
729
1156
2209
3136
2704
961
1
1369
4356
5625
3364
529
9
100
121
324
676
1225
2116
3136
2601
961
0
1296
4225
5625
3364
529
9
100
121
324
676
1156
2025
3136
2809
961
0
1225
4225
5776
3600
625
4
121
144
324
676
1225
2025
3025
2809
1024
0
1296
4356
5625
3481
529
9
100
121
324
676
1156
1936
2916
2704
1089
1
1225
4225
5625
3481
576
4
100
121
289
676
1225
2025
3025
2704
1024
0
1296
4356
5625
3481
576
4
100
121
289
676
1156
2025
3025
2704
1024
0
1369
4356
5776
3249
484
16
121
144
324
729
1156
2116
3025
2601
900
4
1369
4356
5625
3249
484
9
100
121
324
729
1156
2116
3136
2601
900
1
1369
4356
5625
3249
484
9
100
144
324
729
1156
2025
3025
2601
961
0
1296
4096
5476
3364
529
9
121
144
289
625
1156
2025
3025
2704
1024
0
1369
4356
5776
3481
576
4
100
121
289
676
1225
2025
3025
2809
1024
0
1296
4225
5625
3364
576
4
81
121
324
676
1225
2025
3025
2704
1089
0
1225
4225
5625
3481
576
9
121
121
289
676
1089
2025
3025
2704
1024
0
1296
4225
5625
3249
529
9
121
144
324
676
1156
1936
3025
2704
961
0
1369
4356
5625
3481
576
4
100
121
289
676
1156
2025
3025
2704
1024
0
1296
4225
5625
3364
529
9
100
144
324
729
1156
2025
3025
2601
961
0
1296
4096
5625
3481
576
4
121
121
289
676
1225
2025
3025
2704
1024
0
1296
4225
5625
3481
576
4
121
144
324
625
1156
2025
3025
2704
1024
0
1296
4356
5625
3364
576
9
121
144
324
676
1156
2025
3025
2601
961
0
1225
4225
5776
3481
576
9
144
144
289
625
1089
1936
2916
2704
1024
0
1296
4096
5625
3364
529
9
121
144
324
729
1156
2025
2916
2601
961
0
1296
4096
5476
3481
576
9
121
144
289
676
1089
1936
3025
2704
1089
0
1225
4096
5625
3481
576
4
121
121
289
676
1156
2025
2916
2704
1024
0
1296
4225
5776
3364
529
16
121
144
324
676
1156
2025
3136
2704
961
1
1369
4225
5625
3364
529
9
121
144
289
676
1156
1936
2916
2704
1024
0
1296
4225
5625
3364
529
16
121
144
324
729
1156
2116
3025
2601
900
4
1369
4356
5776
3364
484
16
121
169
324
676
1156
2025
2916
2601
900
1
1369
4356
5625
3249
484
9
100
144
324
729
1156
2025
3025
2601
961
0
1296
4225
5625
3364
529
9
100
144
289
676
1225
2025
3025
2704
1024
0
1296
4225
5625
3481
576
9
121
144
289
676
1156
2025
3025
2601
961
0
1225
4096
5625
3481
576
4
121
144
289
676
1089
1936
2916
2704
1089
1
1225
4225
5625
3600
576
9
144
169
324
625
1089
1936
2916
2704
1024
0
1296
4225
5625
3364
529
9
121
144
289
676
1156
2025
3025
2601
961
0
1296
4096
5625
3481
576
4
121
144
324
676
1156
2025
3025
2601
1024
0
1296
4356
5625
3481
576
9
121
144
324
676
1156
2025
3025
2704
1024
0
1369
4356
5625
3481
625
4
100
144
289
729
1225
2116
3136
2704
1024
0
1369
4489
5776
3364
529
9
100
144
289
676
1225
2025
3136
2704
961
0
1296
4225
5625
3481
576
4
100
121
289
676
1156
2025
3025
2704
1089
0
1296
4225
5776
3481
529
9
144
144
324
676
1156
2025
3025
2601
961
0
1296
4225
5625
3364
576
9
121
144
289
676
1225
2025
3025
2704
1024
0
1296
4356
5625
3481
576
4
121
144
289
676
1156
2025
3136
2704
1024
0
1369
4356
5929
3481
576
4
100
144
324
729
1156
2116
3136
2704
1024
1
1369
4356
5776
3249
484
4
100
144
324
729
1156
2116
3136
2601
900
0
1369
4356
5625
3364
484
16
121
169
361
729
1225
2116
3136
2601
900
4
1521
4489
5776
3249
529
4
100
121
324
729
1225
2116
3136
2601
900
1
1369
4225
5625
3249
484
4
100
144
324
729
1225
2116
3025
2704
961
4
1369
4356
5625
3364
529
9
121
121
361
729
1225
2116
3136
2704
961
0
1296
4225
5625
3481
625
4
100
144
324
729
1156
2025
3025
2601
1024
0
1296
4356
5625
3481
576
4
100
144
289
729
1156
2116
3136
2704
1024
0
1444
4489
5625
3364
529
4
100
121
324
676
1156
2025
3025
2704
961
0
1369
4225
5625
3249
484
9
121
144
324
676
1156
2025
3025
2601
900
1
1369
4225
5625
3364
529
9
121
144
324
729
1156
2025
3025
2601
961
0
1296
4096
5476
3481
576
4
121
121
289
676
1156
2025
3025
2704
1089
0
1296
4096
5625
3481
625
9
100
144
289
676
1225
2025
3025
2809
1024
0
1296
4225
5776
3481
576
9
121
144
289
625
1089
1936
2916
2704
1024
0
1296
4225
5625
3249
529
4
100
121
324
676
1156
1936
3025
2704
1024
1
1024
3600
5184
3364
625
0
49
81
225
529
1024
1849
2809
2601
1089
1
1156
3969
5476
3481
576
4
121
144
324
729
1156
2025
3025
2704
1089
1
1156
4096
5625
3481
625
4
100
121
289
676
1156
1936
2916
2601
1024
0
1225
3969
5476
3364
529
9
100
100
289
625
1089
1936
2916
2704
1024
0
1296
4096
5476
3249
529
9
121
121
289
625
1156
2025
2916
2601
961
0
1296
4096
5476
3249
576
4
121
144
324
676
1089
1936
2916
2704
1024
0
1296
4096
5476
3364
529
4
121
144
289
676
1156
2025
3025
2601
961
0
1225
4096
5625
3364
576
4
121
121
289
676
1089
2025
3025
2704
1024
0
1225
4225
5476
3481
576
4
121
144
289
676
1089
1936
2916
2704
1024
0
1296
4225
5476
3249
529
9
100
121
289
676
1156
2025
2916
2601
961
0
1296
3969
5329
3364
576
4
121
144
289
676
1089
1936
2916
2704
1024
0
1225
4096
5476
3364
529
9
121
144
289
625
1089
1936
2916
2704
1024
0
1296
4096
5476
3364
529
9
121
144
324
625
1156
2025
3025
2601
961
0
1225
4225
5625
3364
576
9
121
144
289
676
1156
2025
2916
2601
961
0
1225
4096
5625
3481
576
9
144
144
289
625
1089
1936
2916
2601
1089
1
1225
4096
5625
3364
576
4
100
121
289
676
1156
1936
2916
2601
1024
0
1225
4096
5476
3364
529
9
121
121
289
676
1089
1936
2916
2704
1024
0
1296
4225
5476
3364
529
9
121
144
324
625
1089
2025
3025
2601
900
0
1296
4096
5476
3364
529
9
121
144
289
625
1089
1936
2916
2704
1024
0
1296
4225
5625
3249
484
9
121
144
289
676
1156
2025
3025
2601
961
0
1296
4225
5625
3481
576
4
121
144
289
676
1156
2025
3025
2704
1024
0
1296
4225
5625
3364
529
4
100
121
324
729
1156
2116
3025
2704
961
1
1369
4225
5625
3364
529
9
121
144
289
676
1089
2025
3136
2601
961
0
1296
4225
5625
3364
529
9
121
144
324
729
1156
2025
3025
2601
961
0
1225
4225
5625
3481
625
4
100
144
289
676
1156
2025
3025
2704
1089
0
1296
4225
5625
3364
576
9
121
144
324
729
1156
2025
3025
2704
1024
0
1369
4356
5776
3481
576
9
121
144
324
625
1156
2025
3025
2704
1024
0
1296
4356
5625
3481
576
4
100
121
324
729
1156
2025
3025
2601
961
0
1225
4225
5625
3600
576
9
121
144
289
676
1225
2025
3025
2704
1024
0
1296
4356
5776
3481
529
4
100
144
361
729
1225
2116
3136
2704
1024
0
1369
4356
5776
3364
529
9
100
144
324
729
1156
2116
3136
2704
1024
0
1444
4624
5776
3364
529
9
121
144
324
729
1225
2116
3025
2704
961
1
1369
4356
5625
3364
529
9
100
144
324
729
1156
2116
3136
2704
1024
0
1444
4489
5776
3364
529
9
100
144
324
729
1156
2116
3136
2704
961
1
1369
4356
5776
3364
529
9
121
144
324
729
1156
2116
3136
2704
1024
0
1444
4489
5776
3364
529
4
100
144
324
729
1225
2116
3136
2704
1024
0
1369
4356
5776
3364
529
9
100
121
361
729
1225
2116
3136
2704
961
0
1296
4356
5625
3600
576
9
100
121
324
676
1225
2025
3025
2704
1089
0
1296
4225
5776
3364
529
9
100
144
324
729
1156
2025
3136
2704
961
0
1296
4356
5625
3600
576
9
100
144
324
729
1156
2025
3025
2601
1024
0
1296
4356
5776
3481
576
9
121
144
324
729
1225
2025
3025
2809
1024
0
1296
4356
5776
3481
529
9
100
144
324
729
1156
2116
3136
2704
961
1
1296
4356
5625
3364
529
9
121
144
289
625
1156
2025
3025
2704
1024
0
1296
4356
5625
3364
529
4
100
144
324
676
1156
2116
3025
2704
961
0
1369
4225
5776
3481
576
9
121
144
289
676
1156
2025
3025
2704
1024
0
1296
4356
5625
3481
529
9
121
169
324
676
1156
1936
3025
2704
961
0
1369
4356
5625
3481
576
4
121
144
324
729
1156
2025
3025
2601
961
0
1296
4096
5625
3481
576
9
121
121
289
729
1156
2025
3025
2601
1024
0
1296
4225
5776
3481
576
4
121
144
324
676
1156
2025
3025
2601
961
0
1225
4096
5625
3481
625
4
121
121
289
676
1156
1849
2916
2601
1089
4
1089
3969
5476
3481
625
1
100
144
289
676
1156
2025
2916
2601
1024
1
1156
4096
5625
3481
625
4
100
144
289
676
1156
2025
3025
2704
961
0
1225
4096
5625
3600
625
4
121
144
289
676
1156
1936
2916
2704
1024
0
1296
4096
5625
3364
529
9
121
144
324
729
1225
2025
2916
2601
1024
0
1369
4356
5776
3481
576
4
121
144
324
676
1156
2025
3025
2601
961
0
1296
4225
5625
3481
625
9
121
144
324
729
1156
2025
3025
2704
1024
0
1296
4225
5776
3481
576
4
121
144
289
676
1089
1936
2916
2704
1024
0
1296
4225
5625
3364
576
9
121
169
361
729
1156
2025
3025
2704
1024
0
1296
4356
5625
3481
576
4
100
144
324
729
1156
2025
3025
2704
1024
0
1369
4356
5776
3364
529
9
121
144
324
729
1156
2116
3136
2601
961
4
1369
4356
5625
3364
529
9
121
144
324
729
1156
2025
3025
2601
961
0
1296
4225
5776
3481
576
9
121
169
361
676
1225
2025
3025
2809
1024
0
1369
4356
5776
3481
576
4
121
169
361
729
1225
2025
3025
2601
961
0
1296
4356
5776
3600
625
4
100
144
324
729
1156
2025
3025
2704
1024
0
1296
4356
5776
3600
576
4
121
169
324
676
1156
2025
3136
2809
1089
1
1225
4225
5776
3600
576
9
121
144
324
676
1156
2025
3025
2704
1024
0
1369
4356
5776
3364
529
9
121
169
324
729
1156
2025
3136
2704
1024
0
1369
4489
5776
3364
529
9
100
144
324
729
1156
2116
3136
2704
961
1
1369
4356
5776
3364
529
9
121
144
324
729
1156
2025
3025
2704
1024
0
1369
4489
5929
3481
529
9
121
169
361
784
1225
2116
3025
2601
961
1
1369
4225
5776
3481
576
9
121
169
361
729
1225
2116
3136
2704
1024
0
1444
4624
5929
3481
529
9
121
169
361
729
1225
2116
3136
2704
1024
1
1444
4356
5776
3364
529
9
121
144
324
729
1156
2116
3136
2601
900
0
1369
4225
5625
3364
529
9
121
144
324
729
1156
2025
3025
2601
961
0
1296
4225
5625
3364
576
9
121
144
289
676
1225
2025
3136
2704
1024
0
1369
4356
5776
3481
576
9
121
169
361
729
1225
2025
3025
2704
1024
0
1296
4356
5625
3481
576
4
100
144
289
676
1225
2116
3136
2704
1024
0
1444
4489
5625
3364
529
4
100
121
324
676
1156
2025
3025
2704
1024
0
1369
4356
5776
3364
484
9
121
144
324
729
1156
2116
3136
2601
961
1
1369
4225
5625
3364
529
4
100
144
289
676
1225
2025
3025
2704
1024
0
1369
4356
5776
3364
529
9
121
169
324
676
1156
2025
3025
2704
1024
0
1369
4356
5776
3364
529
9
121
144
324
729
1156
2025
3025
2601
961
0
1369
4225
5625
3364
529
9
100
144
289
676
1156
2025
3025
2809
961
0
1296
4096
5625
3481
625
4
121
144
324
676
1089
2025
3025
2704
961
0
1225
4096
5625
3481
625
4
121
121
289
676
1156
1936
2809
2704
1089
1
1225
4096
5625
3481
625
4
121
144
289
676
1089
1936
2916
2704
1089
1
1225
4225
5625
3481
625
4
121
144
289
676
1089
1936
2916
2601
1024
0
1296
4096
5476
3364
529
9
121
144
324
625
1089
1936
2809
2601
961
0
1225
3969
5329
3249
529
9
121
121
256
576
1024
1849
2809
2500
961
1
1089
3844
5184
3364
576
9
121
144
256
625
1089
1936
2809
2500
961
0
1089
3844
5329
3481
625
4
100
121
289
625
1089
1849
2704
2500
1024
1
1156
3844
5329
3249
576
4
100
144
289
625
1089
1936
2809
2601
1024
1
1225
3969
5476
3249
529
9
100
121
256
625
1089
1936
2809
2500
961
0
1156
3844
5329
3249
529
4
121
121
256
576
1024
1764
2809
2601
1024
1
1089
3844
5184
3249
529
9
100
121
256
576
1024
1849
2809
2500
1024
1
1156
3969
5329
3249
529
9
121
144
289
625
1089
1936
2809
2500
900
0
1225
3969
5184
3249
529
9
121
144
289
576
1024
1849
2916
2401
961
0
1156
3844
5184
3249
529
16
121
144
289
625
1089
1764
2809
2401
841
0
1225
3844
5184
3136
484
16
121
144
289
625
1089
1849
2809
2401
841
1
1296
3969
5041
3025
441
16
121
144
289
625
1089
1849
2916
2401
900
1
1296
3969
5184
3025
441
9
121
144
289
576
1024
1764
2704
2401
900
0
1225
3844
5184
3025
441
9
121
144
289
625
1024
1764
2704
2401
900
0
1156
3844
5184
3136
529
9
121
121
256
625
1089
1849
2704
2500
900
0
1089
3721
5041
3249
529
4
100
121
256
576
1024
1764
2704
2601
1089
4
1024
3721
5329
3249
576
4
100
121
256
625
1024
1849
2704
2401
961
1
1024
3600
5184
3364
576
4
100
121
256
576
1024
1764
2809
2601
1024
1
1089
3844
5184
3249
529
9
121
121
256
576
1024
1764
2809
2601
1024
1
1156
3844
5184
3249
529
9
121
144
289
625
1089
1849
2809
2500
961
0
1156
3969
5329
3364
576
9
100
121
289
576
1024
1849
2916
2601
1024
1
1156
3844
5476
3364
576
4
121
144
289
625
1089
1936
2916
2601
1024
0
1296
4096
5476
3249
529
9
121
144
289
676
1089
1936
3025
2809
1024
0
1369
4225
5625
3364
529
9
121
144
289
676
1089
1936
2916
2704
1024
0
1369
4225
5625
3249
441
9
121
144
324
676
1156
1936
2916
2704
961
1
1444
4356
5776
3249
484
9
121
169
324
676
1156
2025
3025
2704
1024
1
1444
4489
5776
3364
484
9
121
144
324
676
1156
2116
3136
2704
961
1
1444
4489
5929
3481
529
9
121
169
361
729
1296
2209
3136
2809
961
1
1444
4624
5929
3481
576
9
121
169
361
676
1225
2116
3136
2809
1024
0
1444
4624
5929
3364
529
9
121
144
324
729
1225
2116
3136
2809
961
1
1521
4624
5929
3481
576
4
121
144
361
729
1225
2116
3249
2809
1089
0
1521
4624
6084
3600
576
9
121
169
361
729
1296
2209
3136
2916
1024
1
1521
4761
6084
3481
529
9
144
144
324
784
1225
2116
3249
2809
1024
1
1521
4761
6084
3481
529
4
121
169
400
784
1296
2304
3364
2916
961
4
1681
4761
6084
3600
576
4
121
144
361
784
1369
2304
3364
2916
1024
4
1600
4900
6241
3600
484
9
121
169
361
784
1296
2304
3364
2809
1024
4
1600
4900
6241
3600
529
9
121
169
400
841
1369
2304
3481
2916
1089
1
1681
4900
6400
3600
576
4
100
144
361
841
1369
2401
3481
2916
1024
4
1681
5041
6241
3600
576
4
121
169
400
784
1296
2304
3481
2916
1024
4
1681
5041
6400
3600
576
9
121
169
400
784
1369
2401
3481
3025
1024
9
1764
5041
6400
3481
529
4
100
144
361
841
1369
2401
3481
3025
961
4
1681
4900
6241
3600
576
4
121
144
361
841
1369
2304
3364
2809
1024
4
1600
4900
6241
3600
529
9
144
169
361
841
1296
2304
3364
2916
1089
1
1681
4900
6241
3600
576
4
121
169
361
784
1369
2304
3364
2916
1024
1
1681
5041
6400
3600
529
9
121
169
400
784
1369
2401
3481
3025
1024
9
1764
5041
6400
3600
529
9
121
169
400
841
1369
2401
3481
2916
1024
4
1681
5184
6241
3481
484
9
121
196
400
841
1369
2304
3481
2916
900
9
1681
5041
6241
3481
484
4
100
169
400
784
1369
2304
3481
2916
961
9
1681
5041
6400
3600
576
9
121
196
441
841
1369
2304
3364
2916
1089
1
1681
5041
6400
3600
529
9
121
169
400
841
1369
2401
3481
2916
1024
4
1681
5041
6241
3600
576
4
100
144
361
841
1369
2401
3481
2916
961
4
1600
4900
6241
3721
576
9
144
169
361
841
1296
2304
3249
2916
1024
1
1600
4900
6241
3600
529
9
121
169
400
784
1369
2304
3481
2916
1024
1
1600
5041
6400
3600
576
4
121
169
361
784
1296
2209
3481
2916
961
4
1600
4900
6241
3721
576
9
144
169
400
841
1369
2304
3249
2916
1024
4
1600
4900
6400
3600
576
9
121
169
361
784
1369
2401
3481
3025
1089
1
1521
4900
6241
3600
576
4
100
144
361
784
1369
2304
3364
2916
1024
1
1681
4900
6241
3600
576
1
100
169
400
841
1296
2304
3481
2916
961
9
1681
4900
6241
3600
576
4
121
144
361
784
1369
2304
3364
2916
1089
1
1681
4900
6400
3721
529
9
144
169
361
841
1369
2304
3364
2916
1024
4
1600
5041
6241
3600
529
9
121
169
400
841
1369
2401
3364
2916
1024
4
1681
5184
6241
3364
484
16
121
169
400
784
1296
2401
3481
2916
961
16
1849
5184
6400
3364
441
4
81
169
361
841
1444
2500
3481
2916
900
9
1681
5041
6241
3364
484
9
100
169
361
784
1369
2401
3481
2916
961
4
1764
5041
6400
3481
529
9
121
196
400
841
1369
2304
3364
2916
1089
4
1681
5041
6400
3481
529
9
144
169
361
841
1369
2304
3364
2916
1024
4
1600
5041
6241
3600
529
9
121
169
361
841
1369
2401
3481
2916
961
4
1681
4900
6241
3600
576
4
121
169
361
784
1369
2304
3364
2916
1024
1
1681
4900
6241
3600
576
4
100
169
400
784
1369
2401
3364
2916
961
4
1600
4900
6400
3721
529
16
121
169
400
784
1369
2401
3481
2809
961
9
1681
4900
6241
3600
576
4
100
144
361
841
1369
2401
3481
2916
1024
4
1681
5041
6241
3600
529
4
100
169
400
784
1369
2304
3481
2916
961
4
1681
4900
6400
3721
529
9
144
169
361
841
1369
2304
3364
3025
1024
1
1681
4900
6241
3600
576
4
100
169
400
784
1369
2304
3481
2916
1024
4
1681
5041
6241
3600
576
4
121
169
361
784
1369
2304
3481
2916
1024
4
1681
5041
6241
3600
529
4
100
144
361
841
1369
2401
3481
2916
961
4
1600
4900
6241
3721
576
9
144
169
400
841
1369
2304
3364
2809
1024
1
1521
4900
6241
3600
576
4
121
144
361
784
1296
2304
3364
2916
1089
1
1600
4900
6400
3721
576
9
121
169
400
841
1369
2304
3364
2916
1024
1
1600
4900
6241
3600
576
4
100
144
361
841
1369
2401
3481
3025
1024
9
1764
5041
6241
3481
529
9
100
169
361
784
1369
2304
3481
2916
961
4
1681
4900
6241
3600
576
4
121
169
361
784
1369
2401
3364
2809
1024
4
1600
5041
6400
3481
529
9
121
169
400
841
1369
2401
3481
2916
1024
4
1681
5041
6400
3481
484
16
121
169
400
841
1296
2304
3364
2809
961
16
1764
5041
6241
3364
484
4
100
169
400
784
1369
2401
3481
2916
961
16
1849
5184
6241
3481
484
4
100
169
400
784
1444
2401
3481
2916
900
16
1849
5184
6241
3249
484
4
100
169
400
841
1369
2500
3481
2916
900
25
1849
5184
6084
3249
484
4
100
169
400
841
1369
2401
3481
2809
900
25
1849
5184
6084
3136
400
4
81
144
400
841
1444
2401
3481
2916
900
16
1849
5184
6241
3364
484
4
81
144
361
841
1369
2401
3481
2916
961
9
1681
4900
6084
3364
484
9
121
144
361
841
1369
2401
3481
2916
961
4
1681
4900
6241
3600
576
4
121
169
400
841
1369
2304
3249
2809
1024
1
1600
4900
6241
3600
529
9
121
169
400
784
1369
2304
3364
2916
1024
1
1681
5041
6241
3600
529
4
100
144
361
841
1369
2401
3364
2916
1024
4
1681
5041
6241
3481
484
9
121
169
361
784
1296
2209
3364
2916
961
4
1600
4900
6084
3600
576
4
121
144
361
784
1296
2304
3249
2809
1024
1
1600
4900
6241
3600
529
9
144
169
361
784
1369
2304
3364
2916
1024
1
1681
4900
6241
3600
576
4
100
144
361
841
1369
2304
3364
2916
1024
4
1600
4900
6241
3481
529
4
121
169
361
784
1296
2304
3364
2916
961
4
1600
4900
6241
3600
576
9
121
169
361
729
1296
2304
3364
2809
1024
1
1521
4900
6241
3600
576
4
100
144
361
841
1369
2304
3364
2916
1024
1
1600
4900
6400
3721
529
9
121
169
400
841
1369
2304
3364
2916
1024
4
1681
5041
6241
3364
484
9
100
144
361
784
1296
2401
3481
2916
961
9
1681
4900
6084
3481
529
9
121
144
361
729
1296
2304
3364
2809
961
9
1681
4761
5929
3481
529
9
144
144
361
784
1296
2209
3364
3025
1024
1
1600
4900
6400
3600
529
9
144
169
361
841
1369
2401
3364
2916
961
1
1600
4900
6241
3721
625
9
121
169
361
784
1296
2209
3249
2916
1089
0
1600
4761
6241
3721
625
9
121
144
324
784
1296
2304
3481
2916
1089
1
1600
4900
6241
3600
576
4
121
144
361
784
1296
2304
3249
2809
1089
1
1521
4900
6241
3600
576
4
100
144
361
841
1369
2304
3364
2916
1024
4
1681
5041
6241
3364
484
4
100
169
361
784
1369
2401
3481
2916
961
4
1681
4900
6084
3481
529
4
100
144
361
784
1369
2304
3364
2809
1024
4
1681
4900
6084
3481
529
9
144
169
400
784
1369
2304
3364
2916
1024
4
1681
5041
6400
3481
529
9
121
169
400
841
1369
2401
3481
2916
961
4
1600
4900
6241
3600
576
4
100
144
361
841
1369
2401
3364
2916
1024
4
1681
5041
6241
3481
529
9
121
196
361
841
1369
2401
3481
2916
961
4
1681
4900
6241
3600
576
4
100
144
361
841
1369
2304
3249
2809
961
4
1600
4761
6241
3481
529
9
144
169
361
784
1296
2209
3249
2916
1024
1
1600
4900
6400
3600
576
9
144
169
400
841
1369
2304
3364
2809
1024
4
1600
4900
6241
3600
529
9
121
144
361
841
1296
2304
3364
2916
1089
1
1681
5041
6241
3600
529
4
100
144
361
841
1369
2304
3364
2916
1024
1
1600
5041
6241
3481
529
9
121
169
400
784
1296
2209
3364
2916
961
4
1681
4900
6241
3600
529
9
144
169
400
784
1225
2209
3364
2916
1024
1
1600
4900
6241
3721
625
9
121
169
400
841
1296
2304
3364
2916
1089
1
1521
4900
6241
3600
576
4
100
144
361
841
1369
2401
3481
3025
1024
4
1681
4900
6241
3600
576
4
121
169
361
784
1369
2304
3481
3025
1024
4
1681
5041
6241
3600
576
4
81
169
400
841
1369
2401
3481
2916
1024
1
1681
5041
6400
3600
529
9
121
169
400
784
1369
2401
3481
2916
1024
4
1681
4900
6241
3481
529
4
100
169
361
784
1369
2304
3481
3025
961
9
1681
4900
6241
3600
576
4
121
169
400
784
1369
2304
3364
2916
1024
1
1681
4900
6241
3600
576
4
100
144
361
841
1369
2304
3364
2916
1089
1
1681
5041
6241
3600
529
9
121
144
361
841
1296
2304
3481
3025
1024
1
1764
5041
6400
3600
529
9
121
169
400
784
1296
2304
3481
2916
1024
4
1681
4900
6084
3481
529
9
121
169
400
841
1369
2401
3481
3025
1024
9
1764
5041
6241
3481
529
4
100
144
361
784
1369
2401
3481
2916
961
4
1681
5041
6241
3481
529
4
100
169
400
784
1369
2304
3364
2916
1024
4
1681
5041
6400
3600
529
9
144
196
400
841
1369
2304
3364
2916
1024
1
1681
5041
6241
3600
529
9
100
144
361
841
1369
2401
3481
2916
961
9
1681
5041
6241
3481
484
9
121
144
361
784
1296
2304
3481
2916
1024
4
1600
5041
6241
3481
484
9
121
169
400
784
1296
2209
3364
2916
961
4
1681
4900
6241
3600
576
4
121
169
361
729
1296
2304
3364
2916
1089
1
1681
5041
6400
3600
529
9
121
169
400
841
1369
2401
3364
2916
1024
4
1681
5041
6241
3481
529
4
100
144
361
841
1369
2401
3481
2916
961
4
1681
4900
6241
3600
576
4
121
144
361
784
1369
2304
3481
2916
1024
4
1681
4900
6241
3481
529
4
100
144
361
784
1369
2304
3364
2916
1089
4
1681
5041
6400
3481
484
16
121
169
400
784
1369
2401
3481
2916
900
16
1849
5184
6241
3364
484
4
81
144
361
841
1369
2401
3481
2916
961
9
1681
5041
6241
3364
484
4
100
144
361
841
1369
2401
3364
2916
1024
4
1681
5041
6400
3481
484
16
100
144
400
841
1369
2401
3481
2809
961
16
1849
5184
6241
3481
484
9
100
144
400
841
1369
2500
3600
2916
900
25
1936
5329
6241
3249
400
4
81
144
361
841
1369
2401
3600
3025
961
9
1764
5184
6241
3364
441
16
121
169
400
841
1369
2401
3364
2809
900
25
1849
5184
6084
3136
441
4
100
169
400
841
1369
2401
3364
2704
841
16
1849
5184
6241
3249
441
9
100
169
441
961
1444
2401
3481
2916
900
25
1849
5184
6241
3249
400
9
100
144
400
841
1369
2500
3481
2916
900
25
1936
5329
6084
3136
441
9
100
169
400
841
1369
2500
3600
2809
841
36
1936
5184
6084
3136
361
9
100
169
400
841
1369
2500
3600
2916
841
36
1936
5184
6241
3136
361
9
81
144
400
841
1369
2401
3481
2809
900
16
1849
5184
6241
3249
400
9
100
169
400
841
1369
2500
3481
2809
900
25
1849
5041
6084
3136
441
4
81
144
400
784
1369
2500
3600
2809
900
9
1764
5041
6241
3364
484
9
100
169
441
900
1444
2500
3600
2916
961
16
1764
5041
6241
3481
529
4
100
144
361
784
1444
2401
3481
2916
961
9
1764
5041
6241
3481
529
4
100
169
361
784
1369
2401
3481
2916
961
4
1681
4900
6241
3600
576
9
121
169
361
729
1296
2209
3364
2916
1024
1
1600
5041
6241
3481
484
9
121
144
361
841
1369
2401
3364
2916
1024
4
1681
5041
6241
3481
529
9
121
196
400
784
1369
2401
3481
2916
961
4
1681
4900
6241
3600
576
4
100
144
361
841
1369
2304
3364
2809
1024
1
1521
4900
6084
3481
529
9
121
169
361
784
1296
2304
3481
2916
961
9
1764
5041
6241
3600
576
9
121
169
361
784
1296
2304
3600
3136
1089
4
1681
5041
6241
3600
576
4
100
144
361
841
1369
2401
3364
2916
1024
4
1600
5041
6241
3600
529
9
121
169
400
841
1369
2401
3481
3025
1024
4
1681
5041
6241
3600
529
4
100
144
361
784
1369
2401
3481
2916
961
4
1681
4900
6241
3600
576
4
100
144
361
841
1369
2304
3364
2916
1024
1
1521
4900
6241
3600
576
9
121
169
361
784
1296
2304
3364
2916
1089
1
1681
4900
6241
3600
529
9
121
169
361
784
1296
2304
3481
2916
961
9
1681
4900
6241
3481
529
4
100
144
361
784
1369
2401
3481
2916
1024
4
1681
5041
6241
3481
529
4
100
144
361
784
1369
2304
3481
2916
1024
1
1681
5041
6241
3600
529
4
100
144
361
784
1296
2304
3481
3025
1089
4
1681
5041
6241
3600
484
9
100
144
361
841
1369
2401
3364
2916
1024
4
1681
5041
6241
3481
529
4
100
169
361
784
1369
2401
3481
2916
961
4
1681
4900
6241
3600
576
4
100
144
361
784
1296
2304
3364
2916
1024
4
1600
4900
6084
3481
529
4
100
144
361
784
1369
2401
3481
2916
961
4
1681
4900
6241
3721
576
4
121
169
361
784
1296
2304
3364
2916
1089
0
1600
4761
6400
3600
576
4
121
144
361
784
1296
2304
3249
2916
1089
0
1600
4761
6241
3600
625
1
100
169
400
841
1369
2304
3364
2916
1089
1
1600
4900
6241
3600
576
9
121
169
400
784
1296
2209
3364
2916
961
1
1681
4900
6241
3600
576
4
121
144
361
841
1296
2304
3364
2916
1089
1
1600
4900
6241
3600
576
4
100
144
361
784
1296
2304
3364
2916
1089
1
1600
4900
6241
3600
576
4
100
144
361
841
1296
2304
3364
2916
1089
4
1681
5041
6241
3481
484
9
121
144
361
841
1296
2304
3364
2916
1089
1
1681
5041
6241
3600
529
4
100
144
324
784
1296
2304
3481
3025
1089
4
1681
5041
6084
3481
529
4
81
121
361
784
1296
2304
3481
3025
1089
0
1600
4900
6241
3600
576
9
121
169
361
729
1296
2304
3481
2916
1024
1
1681
5041
6241
3600
576
4
100
169
400
784
1369
2401
3481
2916
961
4
1681
4900
6241
3600
576
4
100
144
324
784
1369
2304
3364
2809
1024
1
1521
4900
6241
3600
529
9
100
144
361
784
1296
2304
3364
2809
1024
4
1600
4900
6241
3481
529
9
121
169
361
841
1369
2304
3364
2916
1024
1
1600
4900
6241
3481
529
4
100
144
361
784
1369
2304
3364
2916
1024
4
1681
5041
6241
3364
484
4
100
169
361
784
1369
2401
3481
2916
1024
9
1681
5041
6241
3481
484
9
121
169
361
784
1296
2304
3481
2916
961
9
1764
5041
6241
3600
529
9
121
169
400
841
1369
2401
3364
2916
1024
4
1600
4900
6241
3600
529
9
121
169
400
784
1369
2401
3481
2916
961
4
1600
4900
6241
3721
625
9
121
169
361
784
1296
2304
3364
3025
1156
1
1681
4900
6241
3600
576
9
121
144
361
729
1296
2304
3364
2916
1089
1
1600
5041
6241
3600
529
9
121
169
361
784
1369
2401
3481
2916
1024
9
1764
5041
6241
3481
529
9
100
144
361
784
1369
2401
3481
2916
961
4
1681
4900
6241
3600
576
9
121
169
361
784
1369
2401
3481
3025
961
9
1681
4900
6241
3600
576
4
121
144
361
784
1296
2209
3364
3025
1089
1
1521
4900
6241
3721
529
9
144
169
361
784
1369
2304
3364
2916
1089
1
1681
4900
6241
3600
576
4
100
144
361
841
1369
2304
3481
2916
1024
1
1681
4900
6241
3481
529
4
100
144
361
729
1296
2304
3364
2916
1024
4
1681
4900
6084
3364
484
9
100
144
361
784
1369
2304
3481
2916
961
4
1764
5184
6084
3364
484
9
100
169
361
784
1369
2401
3481
2916
961
4
1681
4900
6241
3600
576
9
121
169
400
784
1225
2209
3249
2916
1024
1
1600
5041
6400
3600
529
9
144
196
361
841
1369
2304
3364
2916
1024
4
1681
5041
6241
3364
484
4
100
144
361
841
1369
2401
3481
3025
1024
4
1681
4900
6241
3600
576
4
100
144
361
784
1296
2304
3364
2916
1024
1
1600
5041
6241
3600
529
16
121
169
400
784
1296
2304
3600
2916
961
16
1849
5184
6400
3364
484
4
100
169
441
900
1444
2500
3600
2809
900
16
1849
5041
6084
3249
441
4
100
169
400
841
1369
2401
3481
2809
900
16
1849
5329
6241
3249
441
4
100
169
400
841
1369
2401
3481
2809
900
25
1849
5184
6241
3249
441
9
100
169
441
900
1444
2401
3481
2916
900
25
1849
5184
6241
3249
400
4
100
169
441
841
1369
2500
3600
2916
784
36
1936
5329
6084
3136
361
9
81
169
441
841
1369
2500
3600
2916
841
25
1936
5329
6241
3136
400
9
100
169
441
841
1369
2500
3600
2809
841
36
1936
5329
6241
3025
361
9
100
169
441
900
1521
2500
3600
2809
784
49
2116
5329
6084
3025
400
9
100
169
441
900
1444
2500
3600
2809
784
49
2025
5476
6084
2916
361
9
81
144
400
841
1369
2500
3600
2916
841
36
1936
5184
6241
3136
400
9
100
196
441
900
1444
2500
3600
2809
784
49
2025
5329
6241
3025
361
9
81
144
400
841
1369
2500
3481
2916
900
25
1849
5184
6241
3249
400
4
100
169
400
841
1369
2500
3600
2916
841
36
1936
5329
6241
3136
400
9
100
144
400
841
1369
2500
3600
2916
841
36
1936
5184
6084
3136
400
9
81
144
400
841
1369
2401
3481
2916
900
25
1764
5184
6084
3249
441
9
100
144
400
841
1369
2500
3600
2916
841
25
2025
5184
6241
3249
400
4
100
169
441
900
1444
2500
3600
2916
900
25
1849
5184
6241
3136
400
9
100
144
400
841
1369
2500
3600
2916
841
25
1936
5329
6084
3136
400
9
81
144
400
841
1369
2500
3481
2809
900
25
1849
5184
6241
3249
400
9
100
169
400
841
1369
2500
3600
2916
841
36
1936
5184
6084
3136
400
9
100
169
400
841
1444
2500
3600
2809
841
36
2025
5184
6084
3136
400
9
100
169
400
841
1369
2500
3600
2916
841
25
2025
5184
6241
3136
400
9
100
169
400
841
1369
2500
3600
2916
841
36
1849
5184
6084
3136
441
4
81
169
400
841
1369
2401
3481
2916
961
16
1849
5184
6241
3364
484
4
100
169
400
841
1369
2401
3481
2809
900
16
1849
5184
6084
3249
484
4
81
144
400
841
1369
2401
3481
2916
961
9
1681
5041
6241
3364
484
9
100
144
361
841
1369
2401
3364
2916
1024
4
1681
5041
6241
3481
484
9
121
144
361
841
1369
2401
3481
2916
961
4
1681
4900
6241
3600
529
9
121
144
361
841
1369
2401
3364
2916
1024
1
1681
5041
6241
3600
529
9
121
169
361
784
1369
2401
3481
2916
961
4
1681
4900
6241
3600
576
4
121
169
361
784
1369
2304
3364
2916
1024
1
1681
4900
6241
3600
576
4
100
144
361
841
1369
2304
3364
2916
1089
1
1681
5041
6400
3600
529
9
121
169
400
841
1369
2304
3481
2916
1089
1
1681
4900
6241
3600
576
4
100
144
361
841
1369
2401
3481
2916
1024
9
1764
5041
6241
3600
529
4
100
169
361
784
1369
2401
3481
2916
961
4
1681
4900
6241
3481
529
4
100
144
361
784
1296
2304
3364
2916
1089
1
1600
5041
6400
3481
529
9
121
169
400
841
1369
2401
3481
3025
1024
9
1764
5041
6241
3600
529
9
100
144
361
841
1369
2401
3481
3025
1024
9
1764
5041
6241
3481
529
4
100
144
361
784
1369
2304
3364
2916
1024
4
1681
5041
6241
3481
484
9
121
169
361
784
1296
2304
3481
2916
1089
4
1681
5041
6241
3481
529
4
100
144
361
841
1369
2401
3600
3025
961
9
1681
4900
6241
3600
576
9
121
144
361
729
1296
2304
3364
2916
1089
4
1681
5041
6241
3481
484
9
121
169
400
841
1369
2401
3481
2916
961
4
1600
4900
6241
3600
576
4
121
144
361
784
1296
2304
3364
2916
1089
1
1600
5041
6400
3600
529
9
144
169
361
841
1369
2304
3364
2916
1024
4
1600
5041
6241
3600
529
9
121
169
361
784
1296
2304
3481
2916
1089
1
1600
5041
6241
3481
529
4
100
169
400
784
1296
2209
3364
2916
961
4
1600
4900
6241
3600
576
4
121
169
361
729
1296
2209
3364
3025
1024
1
1600
4900
6241
3600
529
9
121
169
361
841
1296
2304
3364
2916
1089
1
1681
5041
6400
3600
529
9
121
169
361
841
1369
2401
3481
2916
961
4
1681
4900
6241
3481
529
9
121
144
361
729
1296
2304
3364
2916
1024
1
1600
4900
6241
3481
529
4
121
169
361
784
1369
2304
3481
2916
1024
9
1681
5041
6241
3481
529
4
100
144
361
841
1369
2401
3481
2916
961
4
1600
4761
6084
3600
576
4
121
144
361
784
1296
2209
3249
2916
1089
0
1521
4761
6241
3844
625
9
144
196
361
841
1296
2304
3364
2916
1089
0
1600
4761
6400
3721
625
4
121
169
361
784
1296
2304
3481
3025
1089
0
1600
4900
6241
3721
576
9
121
144
361
784
1296
2304
3364
2916
1089
1
1600
4900
6241
3600
576
4
100
144
361
784
1296
2304
3481
3025
1024
4
1681
5041
6241
3481
529
4
81
144
324
784
1296
2304
3481
3025
1089
1
1600
4900
6241
3600
576
4
100
144
361
784
1296
2304
3364
2916
1089
1
1600
5041
6400
3481
529
9
121
169
400
841
1369
2401
3481
2916
961
4
1681
5041
6400
3600
529
9
144
169
361
841
1369
2304
3364
2916
1089
1
1681
4900
6241
3600
529
4
100
144
361
784
1369
2401
3481
2916
961
4
1681
4900
6241
3600
576
9
121
144
361
784
1369
2401
3364
2916
961
1
1600
4900
6241
3600
576
9
121
169
361
784
1296
2304
3249
2916
1089
1
1600
4900
6241
3600
576
4
100
144
361
841
1369
2401
3481
2916
1024
4
1764
5041
6400
3481
529
9
121
169
400
841
1369
2401
3481
2916
1024
4
1681
5041
6241
3481
529
4
100
144
361
841
1369
2401
3481
2916
961
4
1681
5041
6241
3481
529
4
121
169
400
784
1296
2304
3481
2916
961
9
1681
4900
6241
3600
576
4
100
144
361
841
1369
2304
3364
2809
1024
4
1600
4900
6241
3600
484
9
100
144
361
841
1369
2401
3481
2916
961
1
1681
4900
6241
3721
576
9
121
169
361
784
1296
2209
3364
2916
1089
0
1600
4900
6400
3721
529
9
121
169
361
729
1296
2304
3364
2916
1089
4
1681
5041
6241
3481
529
9
121
169
400
841
1369
2401
3481
2916
1024
4
1681
5041
6241
3600
529
4
100
144
361
784
1369
2304
3364
2916
1024
4
1681
5041
6241
3364
484
9
121
169
361
784
1369
2304
3481
2916
961
9
1681
5041
6241
3600
576
9
121
144
361
784
1296
2304
3481
2916
1024
1
1600
5041
6241
3481
484
9
121
169
400
784
1296
2209
3364
2916
1024
4
1681
5041
6241
3600
576
4
100
144
361
841
1369
2401
3481
2916
961
4
1600
4900
6241
3600
576
4
100
144
361
841
1369
2304
3364
2916
1089
1
1681
5041
6241
3600
529
4
121
169
400
784
1296
2304
3481
2916
961
9
1681
4900
6241
3600
576
4
121
144
324
784
1296
2304
3481
2916
1089
1
1600
4900
6241
3600
529
9
100
144
361
841
1369
2401
3481
2916
1024
4
1764
5041
6400
3481
529
9
121
196
400
784
1369
2401
3481
2916
961
4
1681
4900
6241
3600
576
4
121
144
361
784
1369
2304
3364
2916
1089
1
1681
4900
6241
3600
576
4
100
144
361
841
1369
2304
3481
2916
1024
4
1681
5041
6241
3481
484
9
100
144
361
784
1369
2401
3481
2916
961
4
1681
4900
6241
3600
576
4
100
144
361
841
1369
2304
3364
2916
1089
1
1681
5041
6241
3600
529
9
121
144
361
841
1369
2304
3364
2916
1089
1
1681
4900
6241
3600
576
4
100
144
361
841
1369
2304
3364
2916
1024
4
1600
4900
6241
3600
529
9
121
144
361
841
1369
2304
3364
2916
1024
4
1681
5041
6241
3364
484
9
121
169
361
784
1296
2304
3481
2916
961
9
1764
4900
6241
3600
576
4
100
144
361
841
1369
2304
3364
2916
1089
1
1681
4900
6241
3600
576
4
100
144
361
841
1296
2304
3249
2916
1024
1
1600
4900
6241
3600
529
9
121
144
361
841
1369
2304
3364
2916
1089
1
1681
5041
6400
3600
529
9
121
169
400
841
1369
2304
3364
2916
1024
1
1600
5041
6241
3600
529
9
121
144
361
784
1296
2304
3481
2916
1089
4
1681
5041
6241
3481
529
9
100
144
361
784
1369
2401
3481
2916
961
4
1681
4900
6241
3600
576
4
121
169
361
784
1296
2304
3364
2916
1024
1
1600
5041
6400
3481
529
9
121
169
400
841
1369
2304
3364
2916
1089
1
1681
5041
6400
3600
529
16
121
169
400
784
1369
2304
3481
2916
961
9
1764
5041
6241
3364
484
4
100
169
361
784
1369
2401
3481
2916
961
4
1681
4900
6241
3600
576
4
100
144
361
841
1369
2304
3364
2916
1024
1
1600
4900
6241
3600
576
4
121
169
400
784
1296
2304
3481
2916
1024
4
1681
5041
6400
3721
529
9
121
169
400
841
1369
2304
3364
2916
1024
4
1600
5041
6241
3481
484
9
121
144
361
841
1369
2401
3364
2916
1024
1
1681
4900
6241
3600
576
9
121
169
400
784
1225
2304
3364
2916
1024
1
1681
4900
6241
3481
529
4
100
144
361
784
1369
2401
3481
2916
961
4
1681
4900
6084
3600
576
4
121
144
361
784
1369
2304
3364
2916
1024
4
1681
5041
6241
3364
484
9
100
144
361
841
1369
2401
3481
2916
961
4
1681
4900
6241
3721
576
9
121
169
361
784
1296
2304
3481
3025
1024
1
1521
4900
6241
3600
576
4
121
169
400
784
1296
2209
3481
2916
1024
9
1764
5041
6400
3600
529
9
121
169
400
841
1369
2401
3481
3025
961
4
1681
4900
6241
3600
576
9
100
144
361
784
1296
2304
3481
2916
1024
4
1600
4900
6241
3481
529
9
121
169
400
841
1369
2401
3481
3025
1024
9
1764
5041
6241
3481
529
4
100
144
361
784
1369
2401
3481
2916
961
9
1681
5041
6400
3481
484
9
121
169
400
841
1369
2401
3481
2916
961
4
1600
4900
6241
3600
576
4
100
144
361
841
1369
2304
3364
2916
1089
1
1681
5041
6400
3600
529
9
144
169
361
784
1296
2304
3364
2916
1089
1
1681
5041
6400
3600
529
9
121
196
361
841
1296
2304
3364
2916
1024
1
1600
4900
6241
3600
576
4
100
169
361
784
1369
2304
3364
2916
1024
4
1681
5041
6241
3481
529
9
121
169
400
784
1296
2304
3481
2809
961
9
1681
4900
6241
3600
576
4
100
144
361
841
1369
2304
3364
2916
1024
1
1600
4900
6400
3600
529
9
144
169
400
784
1296
2304
3364
2916
1089
1
1681
5041
6400
3600
529
9
121
169
400
784
1369
2304
3364
2916
1024
4
1681
5041
6241
3364
484
9
100
144
324
784
1296
2304
3364
2916
1024
1
1600
5041
6241
3481
529
4
100
144
361
784
1296
2304
3481
2916
1024
4
1764
5041
6241
3364
484
9
121
169
400
841
1296
2304
3364
2809
961
9
1764
4900
6084
3364
484
16
121
169
400
841
1369
2401
3481
2916
900
25
1936
5329
6241
3249
441
9
100
169
400
900
1444
2500
3600
2916
900
25
1936
5184
6241
3249
400
9
100
169
400
841
1369
2500
3600
2916
841
36
1936
5329
6241
3136
400
9
100
169
400
841
1369
2500
3600
2916
841
25
2025
5329
6241
3136
400
9
100
169
400
841
1369
2500
3721
2916
841
36
2025
5329
6241
3136
361
9
81
144
400
841
1444
2500
3600
2916
900
25
1936
5329
6241
3136
400
4
100
169
400
900
1444
2601
3600
2809
841
36
2025
5184
6084
3136
441
9
100
169
441
841
1444
2500
3600
2809
841
36
2025
5476
6241
3136
400
4
81
169
441
900
1444
2500
3600
2916
841
25
1936
5329
6084
3136
441
9
100
144
400
841
1444
2500
3600
2916
841
36
1936
5184
6084
3025
400
9
81
169
441
841
1369
2500
3600
2916
841
25
1936
5329
6084
3249
441
4
81
144
400
841
1369
2401
3481
2916
961
9
1681
5041
6241
3364
484
9
100
169
361
841
1369
2401
3481
2916
961
4
1681
4900
6241
3600
576
4
100
144
361
841
1296
2304
3481
2916
1089
4
1600
5041
6241
3600
529
9
121
169
361
841
1369
2401
3364
2916
1024
4
1681
5041
6400
3481
529
9
121
169
400
784
1369
2401
3481
2916
1024
4
1600
5041
6241
3481
529
9
100
169
361
784
1296
2304
3481
2916
961
4
1600
4900
6241
3600
576
4
121
144
361
784
1296
2304
3364
2916
1089
1
1600
5041
6400
3600
529
9
121
169
400
841
1296
2304
3364
2916
1089
1
1600
5041
6400
3600
529
9
121
169
361
784
1296
2209
3481
3025
1089
1
1600
4900
6400
3600
576
9
121
169
400
784
1296
2304
3481
2916
1024
1
1600
4900
6241
3600
576
4
100
144
361
841
1369
2401
3481
2916
961
4
1681
4900
6241
3600
576
4
121
144
361
784
1296
2209
3481
2916
1089
1
1521
4900
6241
3600
576
4
100
144
361
841
1296
2304
3364
2916
1024
1
1600
5041
6400
3600
529
9
121
169
400
841
1369
2304
3481
2916
1089
1
1681
5041
6241
3481
529
4
100
169
361
784
1369
2304
3481
2916
961
4
1681
4900
6241
3721
576
9
121
169
400
784
1296
2304
3481
3025
1024
1
1600
5041
6241
3481
529
9
121
169
400
841
1369
2304
3364
2916
1089
1
1681
5041
6400
3600
529
9
121
144
361
841
1369
2304
3364
2916
1089
1
1600
4900
6241
3600
576
4
100
169
361
784
1369
2304
3364
2916
1024
4
1600
4900
6241
3600
529
4
100
144
361
841
1369
2401
3481
2916
961
4
1681
4900
6241
3600
576
4
121
144
361
784
1296
2209
3364
3025
1089
0
1521
4900
6241
3600
576
4
100
144
361
841
1369
2304
3364
2916
1024
4
1600
5041
6400
3481
529
4
121
169
400
784
1296
2304
3481
3025
1089
1
1600
4900
6241
3481
529
4
100
144
361
784
1296
2304
3364
2916
1089
1
1681
5041
6241
3481
529
4
81
144
324
784
1296
2304
3481
2916
1089
1
1521
4900
6241
3600
576
4
100
144
361
841
1296
2304
3364
2916
1089
1
1681
5041
6400
3600
529
9
144
144
361
784
1296
2401
3481
2916
1024
4
1681
5041
6241
3481
484
9
121
144
361
841
1369
2304
3364
2916
1024
1
1600
4900
6241
3600
529
4
100
144
361
784
1369
2401
3481
2916
961
4
1681
4900
6241
3600
576
4
121
169
361
784
1369
2304
3481
2916
1024
4
1681
5041
6241
3600
529
4
100
144
400
784
1444
2304
3481
2916
961
9
1681
4900
6241
3721
576
4
121
169
400
841
1296
2304
3364
3025
1089
1
1521
4900
6241
3721
576
9
121
169
400
841
1369
2304
3364
2916
1089
1
1681
5041
6241
3600
576
4
121
169
400
841
1369
2304
3364
2916
1089
1
1681
4900
6241
3600
576
4
100
144
361
841
1369
2401
3481
3025
1024
9
1764
5041
6241
3600
576
9
121
169
400
784
1369
2401
3481
2916
961
4
1681
5041
6241
3600
529
9
121
169
361
784
1296
2304
3364
2916
1089
1
1681
4900
6241
3600
576
4
121
169
400
841
1369
2401
3481
2916
1024
9
1764
5041
6400
3600
529
9
121
169
400
841
1369
2401
3481
2916
1024
4
1681
5041
6241
3481
529
4
100
169
361
784
1369
2401
3481
2916
961
9
1681
5041
6241
3481
529
4
100
144
361
841
1369
2401
3364
2916
1024
4
1681
5041
6241
3481
529
4
100
169
361
784
1369
2401
3481
2916
961
4
1764
5041
6400
3481
529
9
121
169
400
841
1369
2401
3481
2916
1024
4
1681
5041
6400
3721
529
9
144
169
361
784
1296
2304
3364
2916
1089
1
1681
5041
6241
3481
529
4
100
144
361
784
1369
2401
3481
3025
961
9
1764
5041
6241
3600
529
9
121
169
361
784
1296
2304
3364
2916
1024
4
1600
5041
6241
3481
484
4
100
144
361
841
1369
2401
3481
2916
1024
9
1764
5041
6241
3600
529
9
121
169
400
784
1369
2304
3481
3025
1024
9
1764
5041
6241
3481
529
9
100
144
361
784
1369
2304
3364
2916
1024
4
1600
5041
6241
3481
529
9
121
169
400
841
1369
2401
3481
2916
1024
4
1681
5041
6400
3364
484
9
100
144
361
841
1369
2401
3364
2916
1024
4
1681
5184
6241
3364
484
9
121
169
361
841
1369
2401
3481
2916
961
9
1681
5041
6241
3481
484
4
100
144
400
784
1369
2401
3481
3025
1024
9
1764
5041
6241
3481
529
9
100
169
361
784
1369
2304
3481
3025
1024
9
1764
5041
6400
3481
529
4
100
169
361
784
1369
2401
3481
3025
1024
9
1764
5041
6400
3481
529
4
100
144
361
841
1444
2500
3600
2916
961
16
1764
5184
6400
3364
484
9
100
169
400
784
1369
2304
3481
3025
961
9
1764
5041
6241
3600
529
4
100
144
361
841
1369
2304
3481
2916
1024
4
1600
5041
6241
3481
529
9
100
169
361
784
1369
2401
3481
3025
1024
9
1764
5041
6400
3481
529
4
100
144
361
841
1369
2401
3481
2916
961
4
1600
4900
6241
3600
576
9
100
144
361
841
1369
2304
3364
2916
1089
1
1681
4900
6241
3600
576
4
121
169
361
784
1369
2304
3481
2916
1024
4
1681
5041
6400
3600
529
9
121
169
400
784
1369
2401
3481
3025
1024
9
1764
5184
6400
3481
484
4
100
169
400
784
1369
2401
3481
3025
961
9
1764
5041
6241
3481
529
9
121
169
361
784
1296
2304
3364
2916
1024
4
1600
5041
6241
3481
484
9
121
169
400
784
1296
2304
3481
3025
1024
9
1764
5041
6400
3481
529
4
100
144
361
841
1369
2401
3481
3025
1024
9
1764
5041
6241
3481
529
4
100
144
361
841
1444
2401
3600
2916
961
9
1764
5041
6241
3600
529
9
121
169
361
784
1369
2304
3364
2916
1024
4
1681
5041
6241
3481
484
9
121
169
400
784
1369
2401
3481
2916
961
9
1681
4900
6241
3481
529
4
100
144
361
784
1296
2304
3364
2916
1024
1
1600
4900
6241
3600
529
9
121
144
361
841
1369
2304
3481
2916
1024
4
1681
5041
6400
3481
484
9
121
169
361
841
1369
2401
3600
3025
1024
4
1681
5041
6241
3481
529
4
81
144
324
784
1296
2304
3481
2916
1089
1
1600
5041
6241
3600
529
9
121
169
361
784
1296
2304
3481
3025
1089
1
1681
5041
6241
3600
576
4
100
144
361
784
1296
2304
3364
2916
1089
1
1600
4900
6241
3600
576
4
100
144
361
784
1296
2304
3481
3025
1089
1
1681
5041
6241
3481
529
4
100
144
361
784
1296
2304
3481
2916
1024
1
1681
5041
6400
3481
529
4
100
144
361
841
1369
2401
3481
2916
961
4
1681
5041
6241
3600
529
9
144
169
361
784
1296
2304
3364
2916
1089
1
1600
5041
6241
3600
529
9
121
169
361
784
1369
2304
3364
2916
1024
4
1681
5041
6241
3481
484
9
121
169
400
784
1369
2304
3364
2916
1024
4
1681
5041
6241
3481
484
9
121
169
400
784
1369
2401
3481
3025
1024
9
1764
5041
6241
3481
529
4
100
144
361
784
1369
2401
3481
2916
961
4
1681
5041
6241
3481
484
9
121
169
361
784
1296
2304
3364
2916
1024
4
1681
5041
6241
3481
529
9
121
169
400
841
1369
2401
3481
2916
1024
4
1681
5041
6241
3600
576
4
100
169
400
784
1369
2304
3481
2916
961
4
1764
4900
6241
3600
576
9
100
144
361
784
1296
2304
3481
2916
1089
1
1600
5041
6241
3600
529
9
121
169
361
841
1369
2401
3481
2916
961
4
1681
4900
6241
3721
576
9
121
169
400
841
1369
2304
3364
2916
1089
1
1681
4900
6400
3721
576
9
144
169
361
784
1296
2304
3481
2916
1024
4
1681
4900
6084
3481
484
9
121
169
361
841
1369
2401
3481
3025
1024
9
1764
5041
6241
3481
529
4
100
144
361
784
1369
2401
3481
2916
961
4
1681
4900
6241
3600
576
4
121
169
361
784
1369
2304
3364
2916
1024
1
1681
5041
6400
3481
529
9
144
144
361
841
1369
2401
3364
2916
1024
4
1681
5041
6241
3481
529
9
121
196
400
784
1369
2304
3364
2916
1024
4
1600
5041
6241
3600
484
4
121
169
361
784
1296
2304
3364
2916
1024
4
1681
5041
6241
3364
484
9
121
169
400
784
1296
2304
3481
2809
961
9
1764
5041
6241
3600
529
9
121
169
400
841
1369
2304
3364
2916
1024
4
1600
5041
6241
3481
529
9
121
169
400
784
1296
2304
3481
2809
961
9
1681
5041
6241
3600
576
9
100
144
361
784
1296
2304
3481
2916
1089
1
1600
5041
6241
3600
529
9
121
169
361
841
1369
2304
3481
2916
1024
1
1681
5041
6400
3481
529
4
100
144
361
784
1369
2401
3481
3025
1024
9
1764
5041
6241
3481
484
9
100
169
400
841
1369
2401
3364
2809
961
16
1849
5184
6241
3364
484
4
81
144
361
841
1369
2401
3481
2916
1024
4
1681
5041
6241
3481
484
9
100
169
361
784
1369
2401
3481
2916
961
4
1681
4900
6241
3600
625
4
121
169
400
841
1296
2304
3481
2916
1089
1
1600
5041
6400
3600
529
9
121
196
361
841
1296
2304
3481
2916
1024
4
1681
5041
6400
3481
484
9
121
169
361
841
1369
2304
3364
2916
1024
4
1681
5041
6241
3481
484
4
100
144
361
841
1369
2401
3481
3025
1024
9
1764
5041
6241
3364
484
9
100
144
361
784
1296
2304
3481
2916
961
4
1764
4900
6241
3481
529
4
121
169
400
784
1296
2304
3481
2916
961
9
1764
5041
6400
3481
529
16
144
169
400
784
1369
2401
3481
2916
961
4
1764
5041
6241
3600
529
9
121
169
400
841
1369
2401
3481
3025
1024
9
1764
5041
6241
3600
529
4
100
169
400
784
1369
2304
3481
2916
1024
9
1764
5041
6241
3481
529
4
100
144
361
841
1369
2401
3481
2916
961
4
1600
4900
6241
3600
576
4
100
144
361
841
1369
2401
3481
2916
961
4
1600
4900
6241
3721
529
9
144
144
361
784
1296
2304
3364
2916
1089
0
1600
4900
6241
3721
625
4
121
169
400
841
1369
2304
3249
2916
1089
1
1521
4900
6241
3600
625
4
100
169
400
784
1296
2304
3600
3025
1089
1
1681
5041
6241
3600
576
4
100
144
361
841
1369
2304
3364
2916
1089
1
1681
5041
6400
3600
529
9
121
169
400
784
1369
2401
3364
2916
961
4
1600
4900
6241
3600
576
9
121
169
361
784
1369
2304
3364
2916
1024
1
1600
4900
6241
3600
576
4
121
144
361
784
1369
2304
3364
2916
1024
1
1600
4900
6241
3600
576
4
100
144
361
784
1296
2304
3481
3025
1089
1
1681
5041
6400
3600
529
9
121
169
361
841
1369
2500
3600
2916
1024
9
1849
5184
6400
3364
484
4
100
144
361
841
1369
2401
3481
2916
961
4
1681
5041
6241
3481
529
9
100
144
361
784
1369
2304
3364
2916
1024
4
1681
5041
6400
3364
484
16
100
169
400
784
1369
2401
3481
2916
900
16
1849
5184
6241
3364
484
4
100
169
441
900
1444
2500
3600
2916
900
25
1764
5041
6084
3249
484
4
81
144
400
841
1369
2401
3481
2916
961
9
1681
5041
6241
3481
529
9
100
144
361
784
1369
2401
3481
2916
961
9
1681
5041
6241
3481
529
9
144
169
400
784
1369
2304
3481
2916
961
4
1681
4900
6241
3721
529
9
121
169
361
784
1296
2304
3481
3025
1089
1
1600
5041
6241
3600
484
4
100
169
400
784
1369
2304
3364
2916
961
4
1681
4900
6241
3600
576
4
100
144
361
784
1296
2304
3364
2916
1089
1
1521
4900
6241
3600
576
4
100
144
361
841
1369
2304
3364
2916
1024
1
1600
5041
6400
3600
529
4
121
169
400
841
1296
2304
3481
2916
1089
1
1600
5041
6241
3600
529
9
100
144
361
841
1369
2401
3481
2916
961
4
1681
4900
6084
3481
529
4
100
144
361
784
1369
2304
3364
2916
1024
1
1681
5041
6241
3600
529
4
121
169
361
784
1369
2304
3364
2916
1024
1
1681
5041
6241
3600
576
9
100
144
361
841
1296
2304
3364
2916
1089
4
1681
5041
6241
3481
529
9
121
169
400
841
1369
2401
3481
3025
1024
9
1764
5041
6241
3600
576
9
100
169
400
784
1369
2401
3481
2916
961
4
1764
5041
6400
3481
529
9
144
169
361
841
1369
2304
3364
2916
1024
1
1600
5041
6241
3600
529
9
121
169
361
784
1296
2304
3364
2916
1024
4
1681
5041
6241
3481
529
9
121
169
400
841
1369
2401
3600
3025
1024
9
1764
5184
6400
3481
529
4
100
144
361
841
1369
2401
3481
2916
961
4
1681
4900
6241
3481
529
4
100
144
361
784
1369
2304
3364
2916
1024
4
1681
5041
6241
3364
484
4
100
144
361
841
1369
2401
3481
2916
961
4
1681
4900
6241
3600
576
4
100
144
361
841
1296
2209
3364
3025
1089
1
1521
4900
6241
3600
576
4
100
144
361
784
1369
2401
3364
2916
1089
1
1681
4900
6241
3600
576
4
100
144
361
784
1296
2209
3364
3025
1156
0
1600
4900
6241
3600
576
4
100
144
361
841
1369
2304
3364
2916
1024
1
1600
4900
6241
3600
576
4
100
144
361
784
1296
2304
3481
3025
1089
1
1681
5041
6241
3600
576
4
100
144
361
784
1296
2401
3481
2916
1024
4
1681
5041
6241
3481
484
9
121
169
400
784
1369
2304
3481
2916
1024
9
1764
5041
6241
3481
484
9
100
144
361
784
1369
2401
3481
2916
961
4
1681
5041
6241
3600
529
9
121
169
400
784
1369
2401
3481
2916
961
4
1681
5041
6241
3600
529
9
121
169
361
841
1369
2304
3364
2916
1089
4
1681
5184
6241
3600
529
9
121
196
441
841
1369
2401
3481
3025
1024
9
1764
5041
6241
3600
576
4
121
169
400
784
1369
2401
3481
2916
961
9
1681
5041
6241
3481
484
9
121
144
361
841
1369
2304
3364
2916
1024
4
1600
5041
6241
3481
529
9
121
169
400
784
1369
2401
3481
2916
961
4
1681
5041
6400
3600
576
9
144
196
361
841
1369
2304
3364
2916
1089
1
1681
5041
6400
3600
529
9
121
169
400
784
1296
2304
3481
2916
1089
1
1600
4900
6241
3600
576
4
100
144
361
841
1369
2401
3481
2916
1024
9
1681
5041
6241
3600
529
4
100
144
361
841
1369
2401
3481
2916
961
1
1600
4761
6241
3721
625
4
121
169
361
784
1369
2304
3364
2916
1089
1
1600
4900
6241
3600
576
4
121
169
361
784
1369
2401
3481
2916
1024
4
1681
5041
6400
3600
529
9
121
169
361
841
1369
2401
3481
2916
1024
4
1681
5041
6241
3481
529
4
100
144
361
784
1369
2401
3481
2916
961
4
1681
4900
6084
3600
576
4
121
144
361
784
1369
2304
3481
3025
1024
4
1681
4900
6241
3481
529
4
100
144
361
784
1369
2401
3364
2916
1024
4
1681
5041
6241
3364
484
4
100
169
361
784
1369
2401
3481
2916
961
4
1681
4900
6241
3600
576
4
100
144
361
841
1296
2304
3364
2916
1024
1
1600
5041
6241
3600
529
9
121
169
400
784
1369
2304
3364
2916
1024
1
1764
5184
6400
3481
484
16
121
169
400
841
1296
2401
3481
2809
900
16
1849
5184
6241
3249
441
4
100
169
400
784
1369
2401
3481
2809
900
9
1764
5184
6084
3364
484
9
121
169
400
841
1369
2401
3481
2809
961
9
1764
4900
6084
3364
484
9
121
169
400
841
1369
2401
3481
2916
961
4
1681
5041
6400
3600
576
9
121
196
441
841
1369
2304
3364
2916
1089
1
1681
5041
6400
3721
576
4
121
169
400
841
1296
2304
3481
2916
1024
4
1600
4900
6241
3600
529
4
121
169
400
841
1369
2304
3364
2916
1024
4
1600
4900
6241
3481
529
4
100
144
361
784
1296
2304
3364
2916
1024
4
1681
5041
6241
3364
484
9
100
144
361
841
1369
2401
3481
2916
961
4
1681
4900
6241
3600
576
4
100
144
361
841
1296
2209
3364
2916
1024
4
1600
4900
6241
3481
529
9
121
169
400
841
1369
2304
3364
2916
1089
4
1681
5041
6400
3600
529
9
121
169
400
841
1369
2304
3481
2916
1089
1
1681
4900
6241
3481
529
4
100
144
361
784
1369
2401
3364
2916
961
1
1681
4900
6241
3600
576
4
100
144
361
841
1369
2304
3364
2916
1024
1
1600
4900
6241
3600
576
9
100
144
361
784
1296
2304
3364
2916
1089
1
1600
4900
6241
3600
529
4
100
144
361
784
1369
2401
3481
2916
961
4
1681
4900
6241
3600
576
4
100
144
361
841
1369
2304
3364
2916
1089
1
1681
4900
6400
3721
576
9
121
169
400
784
1296
2304
3481
3025
1089
1
1600
5041
6241
3600
484
4
100
144
361
841
1369
2401
3481
2916
1024
4
1681
5041
6241
3600
529
4
100
169
400
784
1296
2304
3364
2916
961
4
1600
4900
6241
3600
529
9
121
144
361
841
1369
2304
3364
2916
1089
1
1600
4761
6241
3600
529
9
121
144
361
784
1296
2209
3364
2916
961
1
1681
4900
6241
3721
529
9
144
144
361
841
1369
2304
3364
2809
1024
4
1600
5041
6241
3600
529
9
121
169
400
841
1296
2304
3481
2916
1089
1
1600
4900
6241
3600
576
4
100
144
361
784
1296
2304
3481
3025
1024
4
1681
5041
6241
3481
529
9
121
169
400
784
1296
2304
3364
2809
961
16
1764
5041
6241
3481
529
4
100
144
361
841
1369
2401
3481
2916
961
9
1681
5041
6241
3481
484
9
121
169
400
784
1369
2401
3481
2916
1024
4
1681
5041
6241
3600
576
4
100
144
361
841
1369
2401
3481
2916
1024
4
1681
5041
6241
3600
576
4
100
144
361
841
1369
2304
3364
2916
1024
4
1681
5041
6241
3481
529
9
121
196
400
841
1369
2401
3481
2916
961
4
1764
4900
6241
3600
576
9
100
144
361
841
1296
2304
3364
2916
1089
1
1600
5041
6241
3600
529
9
121
169
361
729
1296
2304
3364
2916
1089
1
1681
5041
6241
3600
529
9
121
144
361
841
1369
2401
3481
2916
961
4
1681
5041
6400
3600
529
9
144
169
361
841
1369
2304
3364
2916
1089
1
1681
4900
6241
3600
576
4
100
144
361
841
1369
2401
3481
2916
961
4
1681
4900
6241
3600
576
4
121
169
361
784
1369
2304
3364
2809
1024
1
1521
4761
6084
3600
576
4
100
144
361
784
1296
2304
3481
2916
1089
1
1681
5041
6241
3600
529
4
100
144
361
784
1296
2304
3364
2916
1024
1
1600
4900
6241
3600
529
4
100
144
361
841
1296
2304
3364
2916
1024
4
1600
5041
6241
3481
484
9
100
144
361
841
1369
2401
3481
2916
1024
9
1764
5041
6241
3481
529
4
100
169
400
784
1296
2304
3481
2916
961
9
1681
4900
6241
3481
529
4
121
169
361
784
1296
2304
3364
2916
1024
4
1600
5041
6241
3600
484
9
121
144
361
841
1369
2401
3364
2916
1089
1
1681
4900
6241
3600
529
4
100
144
361
784
1369
2304
3364
2916
1024
1
1600
4900
6241
3600
576
4
100
144
361
841
1369
2401
3481
2916
1024
4
1764
5041
6241
3481
529
4
100
169
400
784
1369
2304
3600
2916
961
16
1764
5041
6241
3481
529
4
100
169
400
841
1369
2304
3364
2809
961
9
1764
5041
6241
3481
529
9
121
169
361
784
1296
2304
3481
2916
961
4
1600
4900
6241
3600
576
4
100
144
361
841
1369
2304
3364
2916
1089
1
1681
5041
6241
3600
529
9
121
169
361
784
1296
2401
3481
3025
1024
4
1681
5041
6400
3600
576
9
121
144
361
784
1296
2304
3481
2916
1024
4
1681
4900
6084
3364
529
9
121
169
400
841
1369
2401
3481
2916
961
4
1681
4900
6241
3600
576
4
100
144
361
841
1369
2304
3364
2916
1024
4
1600
5041
6241
3600
484
9
100
169
400
784
1369
2401
3481
2916
961
4
1681
4900
6400
3721
529
9
121
169
361
841
1296
2304
3364
2916
1089
1
1600
4900
6400
3721
576
4
121
196
400
841
1369
2304
3364
2916
1089
1
1681
4900
6241
3600
576
4
100
144
361
841
1369
2304
3364
2916
1024
1
1600
5041
6241
3481
529
4
100
169
361
784
1369
2304
3481
2916
961
4
1600
4900
6241
3600
576
9
121
169
361
784
1296
2304
3249
2916
1024
1
1600
4900
6241
3600
529
9
121
169
361
784
1369
2304
3364
2916
1089
1
1681
4900
6241
3600
576
4
100
144
361
841
1369
2304
3364
2916
1024
4
1600
5041
6241
3481
529
9
121
169
400
841
1369
2304
3364
2916
1024
4
1681
5041
6241
3481
484
16
121
169
400
841
1369
2304
3364
2809
900
9
1764
5184
6241
3364
484
16
121
169
400
784
1369
2401
3481
2916
961
9
1764
5041
6084
3249
484
9
100
144
361
784
1369
2401
3481
2916
900
9
1764
4900
6241
3364
484
9
121
196
400
784
1369
2401
3481
2916
961
4
1764
5041
6241
3600
529
9
121
144
361
784
1296
2209
3364
3025
1089
1
1521
4900
6400
3721
576
9
121
169
400
784
1296
2304
3481
2916
1089
1
1600
4900
6241
3600
576
4
100
144
361
784
1296
2304
3364
2916
1024
4
1681
4900
6084
3364
484
4
100
144
324
784
1296
2304
3481
2916
1024
4
1681
5041
6241
3481
484
9
121
169
361
784
1369
2304
3364
2916
1024
1
1681
5041
6241
3600
576
9
121
169
400
784
1369
2304
3364
2916
961
4
1600
4900
6400
3600
529
9
121
169
400
841
1369
2304
3364
2916
1089
1
1681
5041
6400
3600
529
9
121
169
400
784
1296
2304
3481
2916
1089
1
1600
5041
6400
3481
529
4
121
169
400
841
1369
2401
3481
2916
961
4
1600
4900
6241
3600
576
4
121
169
361
729
1296
2304
3364
2809
1024
1
1600
4900
6241
3600
529
9
121
169
400
784
1296
2209
3364
2916
961
1
1600
4900
6241
3600
576
4
121
169
361
784
1296
2304
3249
2916
1024
1
1521
4900
6241
3600
576
4
100
144
361
841
1369
2304
3364
2916
1089
1
1681
5041
6400
3600
529
4
121
169
400
784
1296
2304
3600
3025
1089
4
1600
4900
6241
3600
576
4
121
169
361
841
1369
2401
3481
2916
1024
4
1681
4900
6241
3481
529
9
121
144
361
729
1296
2304
3364
2916
1024
4
1600
5041
6241
3481
484
9
121
169
361
841
1369
2304
3364
2916
1089
1
1681
4900
6241
3600
576
4
100
144
361
841
1369
2401
3481
2916
961
4
1681
4900
6241
3721
576
9
144
169
361
784
1296
2209
3364
3025
1089
1
1521
4761
6241
3721
576
9
144
144
361
784
1296
2304
3364
2916
1089
1
1600
5041
6400
3600
529
9
121
169
400
784
1296
2209
3481
3025
1089
1
1600
4900
6241
3600
576
4
100
144
361
784
1296
2304
3364
3025
1089
1
1681
5041
6400
3600
484
4
100
144
361
841
1369
2401
3481
3025
1024
9
1764
5041
6241
3481
529
4
100
169
361
784
1369
2401
3481
2916
961
4
1681
5041
6400
3600
529
9
144
196
361
784
1296
2304
3481
2916
1089
1
1600
5041
6400
3481
529
9
121
169
400
841
1296
2304
3364
2916
1024
4
1681
5041
6241
3600
529
9
121
169
400
841
1296
2304
3481
2916
1089
1
1600
4900
6241
3600
576
4
100
144
361
841
1369
2401
3481
2916
1024
9
1764
5041
6241
3481
529
4
100
144
400
784
1369
2401
3481
2916
961
4
1764
5041
6241
3600
484
9
121
144
361
784
1369
2401
3481
2916
961
4
1681
5041
6400
3600
529
9
121
169
400
841
1369
2304
3364
2916
1089
1
1681
5041
6400
3600
529
9
121
169
400
784
1296
2304
3481
2916
1089
1
1600
5041
6241
3600
529
9
121
144
361
841
1369
2304
3364
2916
1024
1
1600
5041
6241
3600
529
4
100
144
361
841
1369
2304
3364
2916
1089
1
1681
5041
6241
3600
529
4
100
144
361
841
1369
2401
3481
2916
961
9
1681
4900
6241
3600
529
9
121
169
400
784
1296
2304
3481
2916
1024
1
1600
5041
6241
3481
529
4
100
144
361
841
1369
2401
3481
2916
1024
4
1681
5041
6400
3600
576
4
100
144
400
841
1444
2401
3481
2916
961
9
1764
5041
6241
3600
576
4
100
144
361
841
1369
2401
3481
3025
1024
9
1764
5041
6241
3481
529
4
100
144
361
841
1369
2401
3481
2916
1024
9
1764
5041
6241
3481
529
4
100
144
361
841
1369
2401
3481
2916
961
4
1681
4900
6241
3600
576
9
121
169
361
784
1369
2304
3364
2916
1024
1
1681
5041
6241
3600
576
9
100
144
361
841
1296
2304
3481
3025
1024
4
1681
5041
6241
3600
529
9
121
169
400
841
1369
2401
3481
2916
961
4
1600
4900
6241
3600
576
4
100
144
361
841
1369
2304
3364
2916
1024
1
1600
5041
6241
3600
529
16
121
169
361
784
1369
2401
3481
2916
961
4
1764
5041
6241
3481
529
4
100
144
361
784
1296
2304
3364
2916
1024
4
1681
4900
6084
3364
484
9
121
169
361
784
1369
2401
3481
2916
961
9
1681
5041
6241
3481
484
9
121
144
361
729
1296
2304
3364
2916
1024
4
1600
5041
6241
3481
484
9
121
169
400
784
1296
2304
3364
2916
961
4
1600
4900
6400
3721
529
16
121
169
400
784
1369
2304
3481
2916
961
4
1681
4900
6084
3481
529
4
100
144
361
784
1296
2304
3364
2916
1089
4
1600
5041
6241
3481
484
9
100
144
324
784
1296
2304
3600
2916
1024
4
1681
4900
6084
3481
529
9
144
169
361
784
1369
2304
3364
2916
1024
1
1681
5041
6400
3481
529
4
100
144
361
784
1296
2401
3481
2916
1024
4
1600
4900
6241
3481
529
4
100
144
361
784
1369
2401
3364
2916
961
4
1600
4900
6241
3600
576
9
121
169
361
729
1296
2304
3364
2916
1089
1
1681
5041
6400
3481
529
9
144
169
361
784
1369
2304
3364
2916
1089
1
1681
5041
6241
3600
576
4
100
144
361
841
1369
2304
3364
2916
1089
4
1600
5041
6241
3600
484
4
100
144
361
784
1296
2401
3481
3025
961
4
1600
5041
6400
3600
529
16
144
169
361
784
1369
2401
3481
3025
961
9
1764
5041
6400
3600
484
9
121
169
361
784
1369
2304
3364
2916
1089
1
1681
4900
6241
3600
529
4
100
144
361
784
1369
2304
3481
2916
1024
4
1681
5041
6241
3481
484
4
100
144
361
841
1369
2401
3481
2916
961
4
1681
4900
6241
3600
576
4
121
169
361
729
1296
2304
3364
2916
1089
1
1681
4900
6241
3600
576
4
100
144
361
841
1369
2304
3364
2916
1089
1
1681
5041
6241
3600
529
4
100
144
324
784
1296
2401
3481
3025
1024
1
1681
5041
6400
3600
529
9
121
169
361
841
1369
2401
3481
3025
961
9
1764
5041
6241
3600
529
9
121
144
361
784
1369
2304
3481
2916
1024
4
1681
4900
6241
3481
576
4
100
144
361
841
1369
2401
3481
2916
1024
4
1764
5041
6400
3481
484
9
121
169
361
841
1369
2401
3481
2916
961
4
1600
4900
6241
3600
576
4
100
144
361
784
1296
2209
3481
3025
1089
1
1600
5041
6241
3600
529
9
121
169
361
841
1369
2304
3364
3025
1089
4
1681
5041
6241
3600
529
4
121
169
361
784
1296
2304
3364
3025
1024
4
1681
5041
6241
3600
529
4
121
169
361
784
1369
2304
3481
2916
961
4
1600
4900
6241
3600
576
9
121
144
361
784
1296
2304
3481
3025
1089
1
1600
5041
6241
3600
484
4
121
169
361
729
1296
2304
3364
2916
1024
4
1681
5041
6241
3481
484
16
121
169
400
784
1369
2401
3481
2916
900
9
1764
5041
6084
3364
441
9
100
144
361
841
1296
2304
3481
3025
961
4
1681
5041
6241
3481
529
4
100
169
361
784
1369
2304
3364
2916
1024
4
1681
5041
6241
3481
529
9
121
169
400
784
1296
2209
3481
2916
1024
4
1681
5041
6400
3600
529
4
100
144
361
841
1369
2401
3481
2916
961
4
1681
5041
6241
3481
529
9
121
169
400
841
1369
2401
3364
2916
1089
1
1681
5041
6241
3481
529
4
100
144
361
784
1369
2401
3481
2916
961
4
1681
4900
6241
3600
576
4
121
169
361
784
1369
2304
3481
2916
1024
4
1681
5041
6241
3600
529
4
100
144
361
784
1296
2401
3481
3025
1024
4
1764
5184
6400
3364
484
9
121
144
361
841
1369
2401
3481
2916
961
4
1600
4900
6241
3600
576
4
100
144
361
841
1369
2304
3364
2916
1089
1
1681
5041
6400
3600
529
9
121
169
400
841
1296
2304
3364
2916
1089
1
1600
5041
6241
3600
529
4
121
169
400
841
1369
2401
3481
2916
1024
4
1681
5041
6241
3600
529
4
100
144
361
784
1369
2401
3481
2916
961
4
1681
4900
6241
3600
576
4
100
144
361
784
1296
2304
3481
2916
1089
1
1600
4900
6241
3600
576
9
100
144
361
841
1369
2304
3364
2916
1089
1
1681
5041
6400
3721
529
9
121
196
361
841
1369
2304
3364
2916
1089
4
1600
5041
6241
3481
529
4
100
169
400
784
1296
2304
3364
2916
1024
1
1681
4900
6084
3481
529
4
100
144
361
784
1369
2401
3481
2916
961
4
1681
5041
6241
3481
529
9
121
169
361
784
1369
2304
3481
2916
961
4
1600
4900
6241
3600
576
4
121
169
361
784
1296
2304
3364
2916
1024
4
1600
5041
6241
3481
529
16
121
169
400
784
1369
2401
3481
2916
961
16
1764
5184
6241
3364
484
4
100
169
400
784
1296
2401
3600
2916
961
16
1849
5184
6241
3364
484
4
100
144
400
784
1369
2401
3481
2916
961
9
1681
5041
6241
3364
484
9
100
144
361
784
1369
2401
3481
2916
900
9
1764
5041
6241
3364
441
16
121
169
400
841
1369
2401
3481
2916
961
16
1849
5184
6241
3364
484
4
81
144
361
784
1296
2401
3481
3025
1024
4
1681
5041
6241
3481
529
4
81
169
400
841
1369
2304
3364
2916
1089
1
1681
4900
6241
3481
529
4
100
144
361
784
1369
2304
3364
2916
1089
1
1681
5041
6241
3600
576
9
100
169
400
841
1369
2401
3481
2916
1024
4
1681
5041
6241
3481
529
4
100
144
361
784
1369
2304
3481
3025
1024
9
1681
4900
6084
3481
529
4
100
144
361
784
1369
2401
3481
2916
961
4
1681
4900
6241
3600
576
9
121
169
400
784
1369
2304
3364
2916
1024
1
1681
5041
6241
3600
529
9
121
169
361
784
1296
2304
3481
2916
1089
1
1600
5041
6400
3600
576
4
100
169
400
841
1369
2401
3481
3025
961
4
1600
4900
6084
3481
529
4
100
144
324
784
1296
2304
3249
2916
1024
1
1600
4900
6241
3600
529
9
121
169
361
784
1296
2304
3481
2916
1089
1
1600
5041
6241
3600
529
9
100
144
361
784
1296
2401
3481
2916
1024
4
1600
5041
6241
3481
529
9
121
169
361
784
1296
2304
3481
2916
961
9
1681
4900
6084
3600
576
4
100
144
361
784
1296
2304
3481
3025
1089
1
1681
5041
6400
3600
529
16
121
169
361
784
1369
2401
3600
2916
961
16
1849
5184
6241
3364
484
9
121
169
400
841
1369
2500
3600
3025
961
16
1764
5184
6241
3364
441
4
81
144
361
841
1369
2401
3481
2916
961
4
1600
4900
6241
3600
576
4
100
144
361
841
1369
2304
3364
2916
1089
1
1681
5041
6241
3600
529
9
121
169
361
729
1296
2401
3481
2916
961
1
1600
4900
6241
3600
576
4
100
169
400
784
1296
2304
3364
2916
1089
1
1764
5041
6241
3481
529
4
100
169
361
784
1369
2401
3481
2916
1024
9
1764
5041
6241
3481
529
9
100
144
361
784
1369
2401
3481
3025
961
9
1764
5041
6241
3364
484
9
100
144
361
841
1369
2401
3481
2916
961
4
1681
5041
6241
3600
529
4
100
169
400
841
1369
2304
3364
2916
1024
1
1600
4900
6400
3600
529
9
121
169
361
841
1296
2304
3364
2916
1024
4
1681
5041
6241
3600
529
9
121
169
400
841
1369
2304
3364
2916
1089
1
1681
5041
6241
3481
529
9
121
169
361
784
1296
2209
3364
2916
961
4
1681
4900
6241
3600
529
16
121
169
400
784
1296
2304
3481
2916
900
9
1681
5041
6241
3481
484
16
121
169
400
784
1296
2304
3481
2916
961
9
1764
5041
6241
3600
529
9
121
169
400
841
1369
2401
3364
2916
1024
4
1681
5041
6400
3481
529
9
121
169
400
841
1369
2304
3364
2916
1024
9
1764
5041
6084
3364
484
9
121
196
400
784
1369
2401
3481
3025
961
9
1764
5041
6241
3481
529
4
100
144
361
784
1296
2304
3364
2916
1024
4
1681
4900
6084
3249
484
9
100
144
400
784
1296
2209
3364
2916
961
1
1681
4900
6241
3600
576
9
121
196
400
784
1296
2209
3249
2916
1024
4
1681
5184
6241
3481
484
16
144
169
400
784
1369
2401
3481
2916
961
4
1764
5041
6400
3481
529
9
144
169
400
784
1369
2304
3364
2809
1024
1
1600
5041
6400
3481
484
16
121
169
400
784
1296
2304
3481
2916
961
9
1764
5041
6241
3364
484
9
100
169
400
784
1369
2401
3481
2916
961
4
1764
5041
6400
3481
484
16
121
169
400
784
1296
2304
3481
2916
961
9
1681
5041
6241
3481
529
4
100
144
361
841
1369
2304
3364
2916
1024
4
1681
5041
6241
3364
484
9
100
144
361
784
1369
2401
3481
2916
961
4
1764
5041
6241
3600
529
9
144
169
400
784
1296
2304
3364
2916
1024
4
1681
5041
6241
3481
529
9
121
169
400
841
1296
2304
3364
2916
1024
4
1681
4900
6084
3364
484
16
121
169
400
784
1296
2304
3481
2809
900
9
1764
5184
6084
3249
484
9
100
144
361
784
1296
2304
3364
2809
1024
9
1764
5041
6241
3364
441
16
144
196
441
841
1296
2304
3481
2809
900
25
1849
5184
6241
3136
400
9
121
196
441
841
1444
2401
3481
2809
841
25
2025
5476
6241
3136
400
9
100
169
441
841
1369
2401
3481
2809
841
25
1936
5329
6084
3136
361
16
100
169
441
900
1444
2601
3600
2809
784
36
2116
5329
6084
2916
361
9
100
196
441
841
1369
2500
3600
2809
784
64
2116
5329
6084
2916
361
9
100
196
441
841
1369
2500
3600
2809
784
64
2116
5476
6084
2916
289
16
100
196
441
900
1521
2500
3481
2601
676
81
2209
5329
5776
2704
289
9
81
169
484
841
1444
2601
3721
2704
676
64
2116
5625
5929
2809
289
16
100
169
484
961
1521
2601
3600
2601
625
121
2304
5625
6084
2601
225
16
100
225
529
1024
1600
2704
3600
2401
484
169
2601
5929
5776
2209
144
25
100
225
576
1089
1681
2809
3481
2116
289
324
2809
6084
5476
1764
81
36
100
225
625
1089
1764
2916
3364
1849
169
529
3249
6084
5041
1444
25
64
100
256
625
1089
1849
2916
3249
1681
81
676
3600
6084
4624
1156
9
81
144
324
729
1156
1849
2916
3136
1600
81
841
3844
6241
4624
1156
1
100
144
289
729
1225
1936
3025
3136
1444
25
1024
4225
6084
4225
841
0
100
144
324
729
1156
2025
3025
3025
1296
16
1156
4225
6241
4096
841
0
100
121
324
784
1296
2116
3249
3025
1296
4
1296
4489
6241
3969
729
1
100
121
324
729
1296
2116
3249
3025
1296
4
1296
4489
6084
3969
729
1
121
169
361
729
1225
2025
3136
2916
1225
1
1296
4489
6241
3969
729
4
144
169
324
676
1225
2025
3136
3025
1225
1
1369
4624
6241
3969
729
1
121
169
324
729
1225
2116
3249
3136
1225
1
1444
4761
6241
3969
676
1
100
144
324
729
1225
2209
3364
3136
1225
0
1369
4624
6241
3721
625
4
121
144
324
729
1225
2116
3249
2916
1156
0
1521
4761
6241
3600
576
4
121
144
324
784
1296
2209
3364
3025
1156
0
1600
4761
6241
3721
625
4
121
169
361
784
1296
2209
3249
2916
1089
0
1600
4900
6241
3721
625
16
121
169
361
784
1369
2304
3249
2809
1024
4
1681
4900
6084
3364
484
9
121
169
400
784
1296
2304
3481
2916
961
4
1600
4900
6241
3600
576
4
121
169
361
729
1296
2209
3364
3025
1089
0
1600
4900
6241
3600
576
4
100
169
400
784
1296
2209
3249
2809
1024
4
1600
4900
6241
3481
484
9
121
144
361
784
1296
2304
3364
2916
1089
1
1681
5041
6241
3481
529
4
121
169
400
784
1225
2304
3364
2809
961
9
1600
4900
6084
3481
529
9
121
144
361
729
1296
2304
3364
2809
1024
9
1681
4900
6084
3364
441
9
121
169
400
784
1296
2209
3364
2916
900
9
1681
4900
6084
3481
529
4
121
169
361
784
1369
2304
3249
2809
1024
1
1600
4900
6084
3481
529
4
100
169
361
729
1296
2304
3481
2916
1024
4
1681
5041
6241
3364
484
9
100
144
361
784
1296
2304
3481
2916
1024
9
1764
5041
6084
3249
441
9
100
169
400
784
1369
2401
3481
2809
900
25
1849
5184
6084
3136
441
9
81
144
361
841
1369
2401
3481
2916
961
4
1681
5041
6084
3364
484
9
121
169
361
784
1225
2209
3364
2809
1024
4
1681
5041
6241
3364
484
9
100
169
361
784
1369
2304
3364
2809
961
9
1681
4900
6084
3481
484
9
121
169
400
784
1296
2209
3364
2916
1024
1
1600
4761
6084
3364
484
9
100
144
361
729
1296
2304
3364
2809
1024
4
1681
4900
6084
3364
484
9
100
144
361
729
1296
2209
3249
2809
961
4
1600
4761
5929
3364
484
9
121
169
361
729
1296
2209
3136
2809
961
1
1521
4624
5929
3481
529
9
121
169
361
729
1225
2209
3249
2809
961
4
1600
4761
6084
3600
529
9
121
169
361
729
1225
2209
3364
2916
1024
1
1600
4900
6084
3481
529
9
121
144
324
729
1225
2209
3364
2916
961
1
1521
4624
6084
3481
529
9
100
144
361
729
1296
2209
3249
2809
1024
0
1600
4761
6241
3364
484
9
100
144
361
784
1225
2209
3364
2916
1024
4
1600
4624
5929
3364
529
4
100
144
361
729
1296
2209
3249
2916
1024
4
1600
4900
6084
3364
484
9
121
144
324
729
1296
2304
3364
2809
961
4
1600
4761
6084
3481
529
9
121
169
361
729
1225
2116
3249
2916
1024
0
1521
4761
6084
3481
576
9
121
169
361
729
1296
2209
3249
2809
1024
4
1600
4900
6241
3481
529
4
100
144
361
784
1225
2209
3249
2809
1024
1
1521
4761
5929
3249
484
9
121
169
361
729
1296
2209
3249
2704
961
4
1600
4761
6084
3481
484
9
100
144
324
729
1225
2209
3364
2916
1024
1
1600
4761
5929
3136
484
9
100
144
361
729
1296
2209
3249
2809
961
4
1600
4761
6084
3481
529
9
121
169
361
784
1225
2116
3136
2916
1024
1
1600
5041
6084
3249
484
9
100
144
361
729
1296
2304
3364
2809
1024
4
1681
4900
6084
3364
484
9
100
169
361
729
1296
2304
3364
2916
1024
4
1681
4900
6084
3249
484
9
100
144
361
729
1296
2304
3249
2809
961
9
1681
4761
5776
3364
484
9
100
144
324
784
1296
2209
3364
2916
1024
4
1600
4761
6241
3364
484
9
121
169
361
784
1296
2209
3249
2809
961
4
1600
4761
6084
3481
529
4
100
144
361
784
1296
2209
3249
2809
1024
0
1521
4624
6084
3481
529
9
100
144
324
784
1296
2209
3364
2916
1024
4
1600
4761
6084
3364
484
9
100
144
361
729
1296
2304
3249
2704
961
4
1600
4761
5929
3364
484
9
121
144
361
729
1225
2209
3364
2916
1024
1
1600
5041
6084
3364
484
9
121
144
324
676
1296
2209
3364
2916
1024
4
1600
4761
6084
3364
484
9
121
169
361
729
1225
2209
3249
2704
961
4
1600
4624
5929
3364
529
9
100
144
361
729
1296
2209
3249
2916
961
4
1600
4624
6084
3481
529
4
100
144
324
729
1225
2209
3249
2916
1089
0
1521
4624
6084
3481
576
4
100
144
324
729
1225
2209
3249
2916
1156
0
1521
4761
6084
3481
529
9
121
169
361
729
1225
2209
3136
2809
961
4
1521
4624
5929
3481
576
4
100
144
324
729
1225
2209
3249
2916
1089
0
1521
4624
6084
3481
529
9
121
169
400
784
1225
2116
3249
2916
1024
1
1600
4900
6084
3481
529
4
100
144
361
784
1369
2209
3249
2809
961
1
1521
4761
6084
3481
576
4
121
144
361
784
1225
2116
3249
2916
1089
0
1521
4761
6084
3481
529
9
121
169
361
729
1225
2116
3249
2916
1024
1
1521
4761
6084
3481
529
4
100
144
361
729
1296
2209
3364
2916
1024
4
1681
4900
5929
3249
484
9
100
144
361
729
1296
2304
3364
2809
961
4
1600
4900
5929
3249
484
9
100
121
361
729
1225
2209
3249
2809
961
4
1600
4761
5929
3364
529
4
100
144
361
729
1296
2209
3249
2916
1024
1
1600
4761
6084
3364
484
9
100
144
361
729
1296
2209
3249
2916
1024
4
1681
4900
5929
3364
441
9
100
144
361
729
1296
2209
3364
2916
961
1
1600
4624
5929
3364
529
4
100
169
361
729
1225
2116
3249
2916
1024
0
1521
4761
6084
3600
576
4
121
169
361
729
1225
2116
3249
2916
1089
1
1521
4900
6084
3481
529
4
100
169
400
841
1296
2209
3249
2809
1024
4
1681
4900
6084
3481
529
9
121
169
361
729
1225
2209
3249
2809
1089
1
1600
4761
5929
3249
484
9
100
169
361
784
1296
2209
3249
2809
961
9
1600
4761
6084
3364
484
9
121
169
361
729
1225
2116
3249
2809
1024
1
1521
4624
5929
3364
529
4
100
144
361
784
1296
2209
3364
2916
1024
4
1681
4761
6084
3481
529
9
121
169
361
729
1296
2304
3364
2809
961
9
1681
4761
6084
3481
529
9
121
169
361
729
1296
2116
3249
2809
1089
0
1600
4761
6084
3481
529
4
100
169
400
784
1296
2209
3249
2809
1024
4
1600
4900
6084
3481
529
4
100
144
361
784
1296
2304
3364
2809
961
9
1600
4624
6084
3481
529
4
100
121
324
729
1225
2304
3364
3025
1089
1
1521
4761
6084
3481
529
4
100
144
361
729
1225
2209
3249
2916
1024
1
1600
4761
6084
3481
529
4
100
144
361
784
1296
2304
3249
2809
1024
1
1600
4900
6084
3481
529
4
100
144
361
729
1296
2209
3249
2809
1089
0
1600
4761
6084
3364
529
9
100
144
361
729
1296
2209
3249
2916
961
4
1521
4624
6084
3481
529
9
121
144
361
729
1296
2209
3249
2809
1024
1
1600
4900
6084
3481
529
9
100
144
324
784
1296
2209
3364
2916
961
1
1600
4624
6084
3481
576
4
100
144
361
841
1296
2209
3249
2916
1024
1
1521
4761
6084
3481
529
4
121
169
361
729
1225
2116
3249
2916
1024
1
1600
4761
6084
3481
529
9
100
144
361
784
1296
2304
3364
2809
961
4
1600
4761
5929
3481
529
9
121
144
324
729
1225
2116
3249
2916
1089
0
1521
4761
6084
3481
529
9
121
144
324
676
1156
2116
3249
3025
1225
1
1600
4761
6241
3481
529
9
100
144
361
729
1296
2209
3364
2916
1024
4
1600
4900
6084
3364
529
4
100
121
324
729
1225
2304
3481
2916
1024
1
1681
4761
5776
3249
441
9
100
144
361
729
1225
2304
3364
2809
961
9
1600
4761
5929
3364
529
9
121
169
361
729
1225
2116
3249
2916
1024
1
1600
4761
5929
3364
484
4
100
144
324
784
1296
2304
3481
2916
1024
4
1681
4900
5929
3364
484
9
100
144
361
784
1369
2304
3364
2916
961
4
1600
4900
6084
3364
529
4
100
144
361
729
1296
2209
3364
2916
961
1
1521
4624
6084
3481
576
9
121
144
324
729
1225
2116
3249
2916
1089
0
1521
4624
5929
3364
529
4
100
144
361
729
1225
2209
3364
2916
1024
4
1521
4761
6084
3481
576
4
100
169
361
729
1225
2116
3249
2916
1089
0
1521
4624
5929
3364
529
4
100
169
361
729
1225
2209
3249
2916
1024
1
1600
4761
6084
3364
484
16
100
144
324
729
1225
2209
3364
2809
900
9
1600
4624
5929
3364
484
9
100
144
361
784
1296
2209
3249
2809
961
4
1600
4624
6084
3481
529
9
121
169
361
729
1225
2116
3249
2916
1089
1
1600
4761
6084
3364
484
9
100
144
324
729
1225
2209
3364
2916
1024
4
1600
4761
6084
3364
484
4
100
121
324
784
1296
2209
3364
2916
961
0
1444
4624
5929
3481
576
4
100
144
324
729
1225
2116
3249
2916
1089
0
1369
4489
6084
3600
576
4
121
144
324
729
1225
2116
3249
2916
1089
0
1444
4624
5929
3481
576
9
121
144
324
676
1225
2116
3249
2809
1089
0
1444
4624
5929
3481
576
4
100
144
324
784
1225
2116
3249
2809
1089
0
1521
4624
5929
3364
529
9
121
144
324
676
1225
2209
3249
2916
1024
4
1521
4761
5929
3364
529
9
100
144
361
676
1225
2209
3364
2916
961
1
1521
4624
5929
3481
529
4
100
144
361
784
1296
2209
3249
2916
961
4
1521
4761
5929
3481
529
9
121
144
324
676
1225
2116
3249
2916
1089
0
1521
4761
6084
3481
529
9
121
144
324
676
1225
2116
3249
2916
1089
0
1521
4761
6084
3481
576
4
100
144
324
784
1225
2116
3249
2916
1089
0
1521
4761
5929
3364
484
9
100
121
324
729
1225
2209
3249
2809
961
4
1521
4761
5929
3481
529
9
100
144
324
729
1225
2209
3249
2916
1089
1
1521
4624
5929
3481
529
9
121
144
361
729
1225
2116
3249
2916
1024
0
1521
4761
6084
3481
529
9
100
144
324
784
1225
2209
3364
2916
1024
1
1681
4900
5929
3364
484
9
121
144
324
784
1296
2304
3481
2916
1024
4
1600
4900
6084
3364
441
16
100
144
324
784
1296
2304
3364
2809
841
16
1764
4900
5929
3249
441
4
100
169
400
784
1296
2304
3481
2916
900
16
1764
5041
5929
3136
441
9
81
144
361
784
1296
2304
3364
2809
961
16
1681
4900
5929
3136
441
9
100
144
400
784
1296
2304
3481
2809
841
16
1764
4900
5929
3136
441
9
100
169
400
784
1296
2401
3481
2809
900
25
1849
5041
5929
3025
400
4
81
144
400
784
1296
2304
3600
2809
900
16
1849
4900
5776
3136
441
4
100
169
400
784
1296
2304
3364
2809
841
16
1849
5041
5929
3025
441
4
81
144
361
841
1296
2304
3364
2809
961
9
1764
4900
6084
3249
400
9
100
144
400
784
1296
2304
3481
2916
900
9
1681
4900
6084
3481
529
9
100
144
361
784
1369
2304
3249
2809
961
4
1600
4761
6084
3481
576
4
100
144
324
784
1225
2209
3364
3025
1089
1
1521
4761
6084
3481
529
4
121
169
361
729
1225
2209
3249
2916
1024
1
1521
4900
6084
3481
529
4
100
144
361
729
1296
2209
3364
2916
961
1
1521
4624
5929
3481
576
4
100
144
361
729
1296
2209
3249
2916
961
1
1444
4489
5929
3481
576
4
121
144
324
676
1156
2116
3136
3025
1156
0
1444
4624
5929
3600
576
4
121
169
361
784
1225
2209
3136
2809
1024
1
1521
4761
6084
3481
576
4
100
144
361
784
1296
2304
3364
2809
1024
4
1681
4900
6084
3249
484
4
81
121
324
729
1225
2209
3364
2916
1089
1
1521
4761
5929
3249
484
9
100
144
361
729
1296
2209
3249
2809
1024
4
1600
4900
5929
3364
484
4
100
144
324
729
1296
2304
3364
2916
1024
4
1600
4900
6084
3481
529
4
100
144
361
784
1296
2209
3364
2916
1024
1
1521
4900
6084
3481
529
4
100
144
361
729
1296
2209
3364
2916
1024
4
1681
4761
5929
3364
484
4
100
144
324
784
1296
2304
3364
2809
961
9
1600
4761
5929
3364
529
4
100
144
324
784
1225
2116
3249
2916
1089
0
1600
4761
6084
3481
529
4
100
144
361
784
1296
2209
3249
2916
1024
4
1600
4900
6084
3364
484
9
100
169
361
784
1225
2209
3249
2809
961
4
1600
4761
6084
3481
529
9
121
144
361
729
1296
2209
3249
2916
961
4
1521
4761
6084
3481
576
9
121
169
361
729
1225
2116
3249
2916
1024
0
1444
4761
6084
3481
529
9
121
144
324
729
1225
2116
3249
2916
1089
0
1521
4761
6084
3481
529
4
100
144
324
784
1225
2116
3249
2916
1089
0
1521
4761
5929
3364
529
4
100
121
324
784
1296
2209
3364
2916
1024
4
1600
4761
6084
3364
484
9
100
144
361
729
1296
2304
3364
2809
1024
4
1681
4900
6084
3249
484
9
100
144
361
784
1296
2304
3481
2916
961
9
1681
4900
6084
3364
484
9
100
144
361
729
1296
2304
3249
2809
961
4
1600
4761
6084
3481
529
9
144
169
361
784
1296
2209
3364
2916
1024
1
1444
4624
6084
3481
529
4
100
144
324
729
1296
2209
3364
2916
1089
0
1521
4761
6084
3481
529
9
121
144
361
729
1296
2209
3249
2916
1089
1
1521
4761
5929
3364
529
9
100
144
324
729
1296
2209
3249
2916
1024
1
1521
4761
6084
3481
529
4
81
144
361
784
1296
2116
3249
2916
1089
0
1444
4624
5929
3481
576
4
121
169
361
729
1225
2116
3364
2916
1024
1
1444
4624
5929
3481
576
4
100
169
361
784
1296
2209
3136
2809
1024
1
1521
4761
6084
3481
576
4
100
144
361
784
1296
2209
3364
2916
961
1
1521
4624
5929
3481
529
9
121
169
324
676
1156
2116
3364
2916
1089
0
1521
4761
6084
3481
529
4
100
121
324
841
1296
2209
3364
2916
1024
1
1521
4761
6084
3481
529
4
100
144
324
784
1296
2304
3249
2916
961
4
1521
4761
6084
3481
529
9
121
144
361
729
1296
2209
3249
2809
1089
1
1444
4624
6241
3481
529
9
121
121
324
729
1225
2209
3249
2809
1024
1
1521
4624
5929
3364
484
9
100
144
324
784
1296
2209
3364
2809
1024
4
1521
4624
5776
3364
484
4
100
144
324
729
1225
2209
3364
2916
1024
4
1600
4761
6084
3364
484
4
100
144
361
729
1296
2304
3364
2809
961
9
1600
4761
5929
3364
484
9
100
144
361
729
1296
2209
3136
2809
961
0
1521
4624
5929
3481
576
4
121
169
361
729
1225
2116
3249
2916
1024
0
1521
4761
6084
3600
576
4
100
144
324
784
1225
2209
3364
2916
1089
0
1521
4761
5929
3481
576
4
81
121
324
784
1225
2116
3136
2916
1089
0
1369
4489
5929
3481
576
4
100
144
324
676
1225
2116
3249
2916
1089
0
1444
4624
5929
3481
576
4
100
144
324
729
1225
2116
3249
2916
1156
0
1521
4761
6084
3600
576
4
100
144
324
784
1225
2116
3249
2809
1089
1
1444
4624
6084
3481
529
9
121
144
361
729
1225
2209
3249
2916
1024
1
1521
4761
6084
3481
529
4
121
169
361
729
1225
2116
3249
2916
1024
1
1600
4761
6084
3481
529
9
100
144
361
729
1296
2304
3249
2809
961
4
1600
4761
6084
3481
529
9
121
144
324
729
1225
2116
3249
2809
1024
0
1521
4624
6084
3481
529
9
100
144
361
729
1296
2209
3249
2916
961
1
1444
4624
5929
3600
576
4
100
121
324
729
1225
2209
3249
2916
1089
0
1521
4489
5929
3481
576
4
100
144
361
729
1296
2209
3249
2916
1024
4
1600
4900
6084
3481
529
4
100
121
324
784
1296
2209
3364
2916
1024
1
1600
4761
6084
3364
529
9
100
144
361
729
1296
2209
3249
2916
1024
4
1681
4761
6084
3364
484
9
100
144
361
784
1296
2304
3364
2809
961
9
1600
4761
5929
3364
484
9
100
144
361
729
1296
2209
3249
2809
1024
4
1681
4900
5929
3249
484
9
100
144
361
729
1296
2209
3364
2916
961
1
1521
4761
6084
3481
576
4
100
144
361
784
1225
2209
3364
2916
1024
1
1600
4900
6084
3481
529
4
100
144
324
784
1296
2209
3364
2916
1024
1
1521
4761
6084
3481
529
4
100
144
361
729
1296
2209
3249
2916
1024
4
1600
4761
6084
3481
484
9
100
144
361
784
1296
2304
3364
2809
961
4
1600
4761
5929
3364
529
4
100
144
361
784
1369
2304
3249
2809
1024
4
1600
4761
6084
3481
529
4
100
144
361
729
1296
2209
3364
2916
1024
4
1600
4761
6084
3481
529
9
121
144
361
729
1225
2209
3364
2916
1024
4
1600
4761
6084
3481
529
4
100
144
361
784
1296
2209
3364
3025
1024
4
1600
4900
6084
3364
529
9
100
144
324
729
1296
2304
3364
2809
1024
4
1600
4900
6084
3364
484
9
121
169
361
784
1225
2209
3364
2809
961
4
1600
4900
5929
3364
484
9
100
144
324
729
1296
2209
3364
2916
1024
4
1681
4761
5929
3364
484
9
100
144
400
841
1369
2304
3249
2809
961
4
1600
4761
6084
3481
529
4
100
144
361
729
1296
2209
3364
2916
1024
1
1521
4900
6084
3481
529
9
121
144
361
729
1296
2304
3249
2809
1024
1
1600
4900
6241
3481
529
4
100
144
324
784
1296
2304
3364
2916
961
1
1600
4624
5929
3481
529
4
100
144
324
784
1296
2304
3364
2916
1024
4
1600
4900
6084
3481
484
9
121
169
361
784
1296
2209
3249
2704
961
4
1521
4624
5929
3481
576
4
121
169
361
729
1296
2209
3249
2916
1089
1
1521
4761
6084
3481
529
16
121
144
361
729
1225
2116
3249
2704
900
4
1681
4761
5929
3364
484
16
121
144
361
784
1296
2304
3364
2809
961
9
1681
4761
5929
3249
484
9
100
144
324
784
1296
2304
3364
2809
961
9
1681
4761
5929
3364
484
9
121
144
361
784
1296
2209
3249
2809
1024
4
1600
4900
6241
3481
484
9
121
169
361
676
1225
2304
3364
2916
1024
4
1600
4900
6084
3481
529
9
121
169
361
729
1296
2209
3249
2916
1024
4
1600
4900
6084
3481
484
9
100
144
324
729
1296
2209
3481
2916
1024
4
1600
4761
6084
3364
484
9
100
144
361
729
1296
2304
3364
2809
1024
4
1681
4900
6084
3364
484
9
100
144
361
784
1296
2304
3481
2916
961
4
1600
4900
6084
3364
529
4
81
144
361
784
1296
2209
3364
3025
1089
0
1521
4761
6084
3600
576
9
121
169
361
729
1225
2209
3249
2916
1089
0
1600
4900
6241
3600
576
4
100
144
361
784
1296
2209
3249
2916
1089
1
1600
4761
5929
3364
484
4
100
144
361
784
1296
2209
3481
2916
961
4
1600
4761
5929
3481
576
4
100
144
324
729
1225
2209
3249
2916
1089
0
1444
4624
5929
3364
529
9
100
144
324
729
1225
2209
3364
2916
1024
1
1600
4900
6084
3481
529
4
100
144
361
784
1296
2209
3364
3025
1024
1
1600
4900
6241
3481
529
4
100
144
361
784
1296
2209
3481
2916
1024
4
1600
4900
6084
3481
529
9
100
144
361
784
1296
2304
3364
2809
961
4
1600
4761
6084
3481
529
4
100
144
361
729
1225
2209
3364
2916
1024
1
1600
4761
6084
3481
529
9
121
144
324
729
1296
2209
3364
2809
1024
4
1600
4900
6084
3481
529
9
100
144
361
729
1296
2304
3249
2809
961
4
1600
4761
6084
3364
529
9
100
144
324
729
1225
2209
3364
3025
1024
1
1521
4900
6084
3364
484
9
121
144
361
729
1225
2209
3249
2809
1024
4
1681
4900
5929
3364
441
9
100
144
324
784
1296
2304
3364
2809
1024
4
1600
4900
6084
3481
529
4
100
144
361
784
1296
2209
3364
2916
1024
4
1681
4900
6084
3364
484
9
100
144
361
729
1296
2304
3364
2916
1024
4
1681
5041
6084
3364
484
9
100
144
361
784
1369
2304
3364
2809
961
9
1681
4761
6084
3364
484
9
100
144
361
784
1296
2304
3364
2809
961
4
1521
4761
6084
3600
576
9
121
169
361
729
1296
2209
3249
2916
1089
1
1521
4900
6241
3481
529
4
100
144
324
784
1296
2209
3364
2916
1024
1
1600
4761
6084
3481
529
4
100
144
361
784
1296
2304
3481
2916
1024
4
1681
4900
6084
3364
484
9
100
144
361
729
1296
2304
3364
2809
961
4
1521
4761
5929
3481
529
4
100
144
324
784
1296
2209
3364
2916
1024
1
1521
4761
6084
3481
529
9
121
169
361
729
1296
2209
3249
2809
1024
4
1600
4900
6084
3364
529
9
100
144
361
729
1296
2209
3364
2916
1024
4
1600
4761
6084
3481
529
4
100
144
361
784
1296
2209
3364
2916
1024
1
1521
4761
5929
3364
484
4
81
144
361
729
1225
2209
3249
2809
1024
1
1600
4900
6084
3481
529
4
100
144
361
784
1296
2304
3249
2809
961
4
1600
4761
6084
3481
529
4
100
144
324
784
1296
2209
3481
2916
1024
4
1600
4761
6084
3481
484
9
121
144
361
729
1296
2209
3249
2809
961
4
1600
4761
5929
3481
529
4
100
144
324
729
1225
2209
3364
2916
1089
0
1521
4761
6084
3481
529
4
100
144
361
729
1225
2116
3364
3025
1089
1
1600
4900
6241
3600
529
9
121
144
361
784
1296
2209
3364
2916
1024
1
1600
4761
6084
3481
529
9
100
144
324
784
1296
2304
3364
2916
1024
4
1600
4900
5929
3364
484
9
100
144
361
729
1296
2304
3364
2809
1024
4
1681
4900
6084
3364
484
9
100
144
361
729
1296
2304
3249
2809
1024
4
1681
4900
6084
3249
441
4
81
144
400
841
1369
2304
3249
2809
961
1
1600
4624
6084
3481
529
9
121
144
361
729
1296
2209
3249
2809
1024
4
1600
4900
6084
3364
529
4
100
144
361
784
1296
2304
3249
2809
961
4
1600
4761
6084
3481
529
4
100
169
361
729
1296
2209
3249
2916
1024
1
1521
4900
6241
3481
529
9
121
144
361
729
1296
2209
3249
2916
1024
4
1600
4900
6084
3481
484
9
100
144
361
729
1296
2209
3249
2916
1024
4
1600
4761
6084
3481
529
4
100
144
361
784
1296
2209
3364
2916
1024
4
1600
4761
6084
3481
529
9
121
169
361
729
1296
2209
3249
2809
961
4
1521
4761
6084
3481
529
9
121
144
361
784
1296
2304
3249
2916
1024
4
1600
4900
6084
3481
576
4
100
144
361
784
1296
2209
3364
2916
961
1
1521
4624
5929
3481
576
4
100
144
324
784
1225
2116
3249
2916
1156
0
1444
4761
6241
3600
625
9
100
144
324
784
1225
2209
3364
2916
1089
0
1444
4761
6084
3481
576
4
100
144
361
729
1225
2116
3249
2916
1089
0
1521
4761
6084
3481
529
4
100
144
324
784
1225
2116
3364
2916
1089
0
1521
4761
5929
3364
529
9
100
144
361
729
1225
2209
3249
2916
1024
4
1600
4761
6084
3481
529
4
100
144
361
841
1296
2209
3249
2916
1024
4
1681
4761
6084
3364
484
9
121
169
361
784
1225
2209
3364
2916
961
4
1600
4900
6084
3481
529
9
121
144
361
729
1296
2209
3249
2916
1024
4
1600
4761
6241
3364
484
9
121
169
361
784
1296
2209
3249
2809
1024
4
1681
4900
5929
3364
484
9
100
144
361
784
1369
2304
3364
2809
961
4
1600
4761
6084
3481
529
4
100
144
361
729
1296
2209
3364
3025
1089
1
1521
4761
6084
3481
529
4
100
169
361
729
1296
2209
3249
2916
1024
1
1521
4761
6084
3481
576
4
100
121
324
784
1296
2209
3364
2916
1024
0
1600
4761
6084
3600
529
9
121
144
324
729
1225
2304
3364
2916
1089
1
1521
4900
6241
3600
529
9
100
144
361
784
1296
2209
3364
2916
1024
1
1600
4900
6084
3364
484
9
100
144
361
729
1296
2304
3364
2809
961
9
1600
4761
5929
3364
529
9
121
144
361
729
1296
2209
3249
2809
1024
4
1600
4900
6084
3481
529
4
121
169
361
729
1296
2209
3249
2916
1024
4
1600
4761
6084
3481
529
9
121
169
361
729
1296
2209
3249
2809
961
4
1521
4761
6084
3600
576
4
100
144
324
729
1225
2209
3249
2916
1089
0
1521
4624
6084
3481
529
4
100
144
361
729
1296
2209
3249
2916
1024
1
1600
4900
6084
3481
529
4
100
144
324
784
1296
2209
3364
2916
1024
4
1600
4624
5929
3364
529
4
100
144
361
729
1225
2209
3364
2916
1024
4
1681
4900
5929
3364
484
9
121
169
361
784
1369
2304
3364
2809
961
4
1521
4761
5929
3481
529
4
100
169
361
729
1225
2116
3249
2809
1089
1
1600
4761
6084
3364
441
16
121
169
361
729
1296
2304
3364
2809
961
9
1681
4761
5929
3364
484
9
100
144
361
729
1296
2304
3364
2916
1024
4
1681
4900
6084
3364
484
9
100
169
400
784
1225
2209
3364
2809
1024
4
1681
5041
6241
3364
484
9
100
144
361
729
1296
2304
3364
2809
961
9
1681
4761
5929
3249
484
9
100
169
361
784
1296
2209
3364
2809
961
4
1600
4761
6084
3481
529
4
100
144
324
784
1225
2209
3364
2916
1024
0
1521
4761
6084
3600
576
4
100
144
361
784
1296
2209
3249
2809
1089
0
1600
4761
6084
3481
529
9
100
144
361
784
1296
2209
3364
2916
1024
1
1521
4761
6084
3481
529
9
121
144
324
729
1225
2209
3364
2916
1024
4
1600
4761
6084
3481
529
9
121
169
400
729
1296
2209
3249
2809
1024
9
1681
4761
5929
3364
484
9
100
169
361
784
1296
2209
3249
2809
961
4
1600
4761
5929
3364
484
4
81
121
324
784
1296
2209
3249
2916
1089
0
1521
4761
6084
3600
576
4
121
169
361
729
1225
2209
3364
3025
1089
0
1600
4900
6241
3600
576
4
100
144
361
784
1296
2209
3364
2916
1024
1
1600
4900
6084
3481
529
9
121
169
361
729
1296
2209
3249
2809
961
4
1600
4761
6084
3481
529
9
121
169
361
729
1296
2209
3249
2809
961
4
1600
4761
5929
3481
529
9
121
144
361
729
1296
2116
3249
2916
1024
1
1521
4900
6241
3600
529
16
121
169
400
784
1296
2209
3364
2809
961
4
1600
4900
6084
3481
529
9
121
144
324
729
1225
2209
3364
3025
1089
0
1521
4761
6084
3481
529
4
100
144
361
729
1296
2209
3249
2916
1024
4
1600
4761
6084
3364
484
9
100
144
324
729
1296
2304
3364
2809
1024
4
1681
4761
6084
3364
484
9
100
144
361
784
1369
2304
3364
2809
1024
4
1681
4900
6084
3364
484
9
100
144
400
784
1225
2304
3364
2916
1024
4
1681
5041
6084
3364
484
9
100
144
361
729
1296
2304
3364
2916
961
9
1681
4761
5929
3364
484
9
100
144
324
784
1296
2304
3364
2916
1024
4
1681
4900
6084
3364
484
9
100
144
361
784
1296
2304
3364
2916
1024
9
1764
5041
6084
3249
441
9
100
144
324
784
1296
2304
3481
3025
1024
9
1764
5041
6084
3249
441
4
100
144
361
784
1296
2304
3481
2916
961
9
1764
4900
5929
3136
441
9
100
144
361
784
1296
2304
3364
2809
961
16
1764
4900
5929
3136
484
4
81
144
361
784
1296
2304
3364
2809
1024
4
1600
4900
6241
3481
529
9
121
169
361
784
1296
2304
3481
2916
1024
4
1681
4900
6084
3364
484
9
100
144
361
784
1296
2304
3364
2809
1024
4
1681
4900
6084
3364
484
9
100
144
361
784
1296
2304
3364
2809
961
9
1681
4761
5929
3364
484
9
121
144
324
729
1296
2304
3249
2809
1024
4
1600
4761
5929
3364
484
4
100
144
361
729
1296
2304
3364
2809
961
4
1600
4761
6084
3481
576
4
121
144
361
784
1296
2209
3364
2916
1024
4
1600
4761
6241
3364
484
4
100
144
361
784
1296
2209
3364
2916
961
1
1521
4761
6084
3600
576
9
121
169
361
729
1296
2209
3136
2916
1024
1
1600
4900
6241
3481
529
9
121
169
361
784
1225
2304
3249
2809
1024
4
1600
4761
5929
3364
529
4
100
144
361
729
1296
2304
3364
2916
1024
4
1600
4761
5929
3364
484
9
100
144
324
784
1225
2209
3364
2916
961
1
1600
4761
6084
3481
529
9
121
144
361
729
1296
2304
3364
2809
961
4
1600
4761
6084
3600
529
9
121
144
361
729
1296
2209
3364
2916
1024
4
1600
4761
6241
3364
484
9
100
144
324
729
1225
2304
3481
3025
1089
1
1521
4761
6084
3481
529
4
100
144
361
729
1296
2209
3249
2916
1024
4
1600
4761
6084
3364
484
9
121
169
361
729
1225
2209
3364
2916
1024
4
1681
4900
6084
3364
484
4
100
121
324
784
1296
2304
3364
2916
1024
4
1600
4900
6084
3364
484
9
121
144
361
841
1369
2304
3364
2809
961
4
1600
4761
5929
3481
529
9
121
169
361
729
1225
2116
3249
2916
1089
1
1521
4900
6084
3481
529
4
100
144
324
729
1225
2209
3249
2916
1089
0
1600
4761
6084
3364
484
9
100
144
361
784
1296
2209
3364
2916
1024
4
1600
4761
6084
3481
529
4
100
144
361
729
1296
2304
3364
2809
961
9
1600
4624
5929
3364
529
9
100
144
361
729
1296
2209
3249
2809
1024
1
1521
4761
6084
3481
529
9
121
144
361
729
1296
2209
3249
2916
1024
4
1600
5041
6241
3481
484
16
121
169
361
784
1296
2401
3481
2916
900
9
1764
4900
5929
3364
484
4
81
144
361
784
1296
2209
3364
2916
1024
4
1600
4761
6084
3481
529
4
100
144
361
784
1296
2209
3364
2916
961
1
1600
4624
6084
3481
576
4
121
144
361
729
1225
2116
3249
2916
1089
0
1521
4761
6084
3600
576
9
121
169
361
729
1296
2209
3136
2916
1024
1
1521
4761
6084
3600
576
4
100
144
361
784
1296
2209
3364
2916
1024
1
1521
4761
5929
3364
529
4
100
144
324
729
1296
2209
3364
3025
1024
1
1600
4900
6084
3364
484
9
121
144
361
729
1296
2304
3364
2916
1024
4
1681
4900
6084
3364
484
4
81
121
361
841
1369
2304
3249
2809
1024
1
1600
4900
6084
3481
529
4
121
169
361
729
1296
2209
3249
2916
1024
1
1600
4900
6241
3481
529
4
100
144
361
784
1225
2209
3364
2916
1024
1
1600
4761
6084
3481
529
4
100
144
361
784
1296
2304
3364
2916
1024
4
1600
4900
6084
3481
529
9
121
169
361
729
1296
2209
3249
2809
1024
4
1600
4900
6084
3364
484
9
100
169
400
784
1225
2209
3364
2809
1024
4
1681
4900
6084
3364
484
9
100
144
361
729
1296
2304
3364
2809
1024
4
1681
4761
6084
3364
484
9
100
144
361
784
1369
2304
3364
2809
961
9
1600
4900
6084
3364
529
4
121
169
361
729
1296
2209
3249
2916
961
4
1600
4761
6084
3481
529
4
121
169
361
729
1296
2209
3249
2916
1024
4
1600
4761
6084
3481
529
4
100
144
361
784
1296
2304
3249
2916
961
4
1600
4624
6084
3600
529
9
121
144
361
729
1225
2116
3249
2916
1089
0
1521
4761
6084
3481
529
9
121
144
324
729
1225
2116
3249
2916
1089
0
1521
4900
6084
3481
529
9
121
144
361
729
1296
2209
3249
2809
1089
1
1521
4761
6084
3481
529
4
100
144
361
729
1296
2304
3249
2809
961
4
1521
4761
6084
3481
576
4
100
169
361
729
1225
2116
3249
2916
1089
0
1444
4761
6084
3481
529
4
100
144
361
729
1296
2209
3249
2916
1089
1
1600
4900
6084
3481
529
4
100
144
361
784
1225
2209
3364
2916
1024
1
1600
4900
6241
3481
529
9
100
169
400
784
1296
2304
3481
2916
1024
4
1600
4900
6084
3364
484
9
100
144
361
729
1296
2304
3364
2809
961
9
1600
4761
6084
3481
529
9
121
144
361
784
1369
2304
3249
2809
1024
4
1600
4900
6084
3481
529
9
121
169
361
729
1296
2304
3364
2809
961
4
1600
4900
6084
3600
484
9
121
169
361
729
1296
2209
3249
2916
1024
4
1600
4761
6084
3481
529
4
100
144
361
784
1296
2209
3249
2916
1024
1
1521
4900
6084
3481
484
9
100
144
361
729
1296
2209
3249
2916
961
4
1600
4624
6084
3481
529
4
100
144
361
784
1296
2209
3249
2916
1024
1
1521
4761
6084
3481
529
9
121
169
361
729
1296
2209
3249
2809
1024
4
1600
4900
6084
3481
529
4
100
144
361
784
1369
2304
3364
2809
961
4
1600
4761
5929
3481
529
4
121
144
324
729
1225
2209
3364
2916
1024
0
1521
4761
5929
3481
529
4
100
144
324
784
1225
2209
3364
2916
1024
1
1600
4761
6241
3364
484
4
100
144
361
784
1296
2209
3364
2916
961
1
1521
4624
5929
3481
576
4
100
144
324
729
1225
2209
3364
2916
1089
0
1521
4761
6084
3481
576
4
100
144
324
784
1296
2209
3364
2916
1089
0
1521
4761
6084
3481
529
9
121
144
324
676
1225
2209
3364
2916
1024
1
1521
4761
6084
3481
529
4
100
144
324
784
1296
2209
3364
2916
1024
1
1521
4761
6084
3481
529
4
100
144
361
729
1296
2209
3364
2916
1024
1
1521
4761
6084
3481
529
9
121
144
361
729
1296
2304
3249
2809
961
4
1521
4761
6084
3481
576
4
121
144
324
784
1296
2209
3364
3025
1089
1
1521
4761
6084
3600
576
9
121
169
361
676
1225
2116
3249
2916
1024
1
1521
4761
5929
3364
529
9
121
169
361
729
1296
2209
3249
2916
1089
1
1521
4624
5929
3481
529
4
100
144
361
729
1225
2116
3249
2916
1089
0
1600
4761
6084
3364
484
9
121
144
361
729
1225
2304
3364
2916
1024
1
1681
4900
6084
3364
484
9
100
144
361
784
1296
2304
3481
2916
900
9
1681
4900
6084
3364
484
9
100
144
361
729
1296
2209
3364
2916
1024
4
1681
4900
6084
3249
441
9
100
144
324
784
1296
2304
3364
2809
1024
4
1681
4900
5929
3364
484
9
100
144
361
729
1296
2304
3364
2809
961
4
1600
4761
6084
3481
529
9
100
144
324
784
1296
2209
3364
2916
1024
4
1600
4624
6084
3481
529
4
100
144
361
784
1296
2209
3364
2916
1024
4
1600
4900
6084
3481
529
9
100
169
361
784
1296
2304
3364
2916
961
9
1681
4761
6084
3364
529
9
100
144
361
729
1296
2209
3364
2916
1024
4
1600
4761
6084
3481
484
9
100
144
324
784
1225
2209
3364
3025
1089
4
1681
4900
5929
3364
484
9
100
144
324
784
1296
2304
3364
2809
1024
4
1681
4761
6084
3481
529
4
100
144
324
784
1296
2304
3364
2916
1024
4
1600
4900
6084
3364
529
4
100
144
361
784
1296
2304
3364
2916
1024
4
1681
5041
6241
3364
484
9
100
144
361
784
1369
2304
3364
2916
1024
9
1681
5041
6084
3364
484
4
100
169
400
784
1296
2304
3481
2916
900
9
1764
4900
6084
3364
484
9
100
169
361
784
1296
2304
3481
2916
961
4
1681
4900
6241
3600
576
4
100
144
361
784
1296
2209
3364
2916
1024
1
1600
4761
6084
3481
529
4
100
144
324
784
1296
2304
3364
2916
1024
4
1600
4900
6241
3481
529
4
100
144
361
784
1225
2209
3364
3025
1089
0
1521
4900
6084
3481
529
4
100
144
361
784
1296
2304
3364
2809
1024
4
1600
4900
6084
3364
529
4
100
144
361
729
1296
2304
3364
2809
961
4
1600
4761
6084
3600
529
9
121
169
324
729
1225
2209
3249
2916
1089
0
1521
4624
6241
3600
529
9
121
144
361
784
1296
2209
3364
2916
1024
1
1600
4900
6241
3600
529
9
121
144
361
784
1296
2209
3364
2916
1024
1
1600
4900
6084
3481
576
4
100
144
361
784
1296
2209
3249
2916
1024
4
1681
4761
6084
3481
529
4
100
144
361
784
1296
2209
3481
2916
1024
4
1600
4900
5929
3364
484
4
100
144
361
729
1296
2304
3364
2809
1024
4
1681
4900
6084
3364
484
9
121
169
400
784
1369
2304
3481
2916
900
9
1681
4900
6084
3481
529
4
100
144
361
784
1369
2304
3364
2809
1024
4
1681
4900
6084
3249
484
9
100
144
361
729
1296
2304
3364
2916
1024
4
1681
5041
6241
3364
484
9
100
144
361
784
1296
2304
3364
2809
961
9
1600
4761
6084
3481
529
4
100
144
361
784
1296
2304
3364
2916
1024
1
1600
4900
6084
3481
529
4
100
144
361
784
1296
2304
3249
2809
961
4
1521
4761
6084
3600
576
4
100
144
361
784
1225
2116
3249
2916
1089
0
1521
4761
6084
3481
576
4
100
144
361
784
1296
2209
3364
2916
1024
1
1600
4900
6241
3481
529
4
100
144
361
784
1296
2209
3364
2916
1024
4
1600
4761
6084
3481
529
4
100
144
361
784
1296
2209
3364
2916
1024
4
1681
4761
6084
3364
529
4
100
144
361
784
1369
2304
3364
2809
1024
4
1600
4900
6084
3364
529
4
100
169
361
729
1296
2304
3364
2916
1024
4
1681
4900
6084
3364
484
4
100
169
361
784
1296
2304
3481
2916
900
9
1681
4900
6084
3481
529
9
121
169
361
729
1296
2304
3364
2916
1024
4
1600
4900
6084
3481
529
9
100
144
361
729
1296
2209
3364
2916
1024
4
1600
4761
6084
3481
529
4
100
144
361
784
1296
2401
3481
2916
1024
4
1681
4900
6084
3364
529
4
100
169
400
784
1225
2304
3364
2916
1024
9
1681
5041
6084
3364
484
9
100
144
361
729
1296
2304
3364
2916
1024
4
1681
4900
6084
3249
484
9
100
144
361
784
1369
2401
3481
2809
961
4
1600
4900
6084
3481
529
9
121
144
324
729
1369
2304
3364
2809
1024
4
1600
4900
6084
3481
529
4
100
144
361
784
1296
2304
3364
2916
1024
4
1600
4900
6084
3481
529
4
100
144
361
784
1296
2304
3364
2916
1024
4
1600
4900
6084
3481
529
4
100
144
361
784
1369
2304
3364
2916
1024
4
1681
4900
6084
3364
484
4
100
169
400
784
1296
2209
3481
2916
961
4
1681
4761
6084
3364
529
9
100
144
361
784
1296
2209
3249
2916
1089
1
1600
4900
6084
3481
529
9
100
169
361
784
1369
2304
3364
2916
1024
4
1681
5041
6241
3364
484
9
121
169
361
784
1296
2304
3481
2916
961
4
1681
4900
6241
3481
529
4
100
144
361
841
1369
2304
3249
2809
1024
4
1600
4761
6084
3481
529
4
100
144
361
729
1296
2209
3364
3025
1089
1
1600
4900
6241
3600
529
9
121
144
361
784
1296
2209
3481
3025
1024
1
1600
4900
6084
3481
576
4
100
144
361
784
1296
2304
3249
2809
1024
1
1600
4900
6241
3481
529
4
100
144
324
784
1369
2401
3364
2916
1024
4
1600
4900
6084
3481
529
4
100
144
361
784
1369
2304
3249
2809
961
4
1521
4761
6084
3481
576
4
100
144
361
784
1296
2209
3364
2916
1024
1
1521
4900
6084
3600
576
9
121
169
361
729
1225
2209
3364
2916
1024
1
1521
4900
6241
3600
576
4
100
169
361
784
1369
2401
3364
2916
1024
1
1521
4761
6084
3481
576
4
100
144
361
729
1296
2209
3364
2916
1024
1
1521
4761
6084
3364
529
4
100
144
400
784
1296
2209
3364
2809
1024
4
1600
4900
6084
3481
529
4
100
144
361
784
1296
2304
3364
2809
1024
4
1681
4900
5929
3364
484
9
100
144
361
784
1296
2304
3364
2809
961
9
1600
4761
6084
3481
529
4
100
144
324
784
1296
2209
3364
2916
1024
1
1521
4761
6084
3481
529
4
100
144
361
784
1296
2304
3249
2809
1024
4
1600
4900
6084
3481
529
4
100
144
361
784
1296
2304
3364
2809
1024
1
1600
4900
6084
3481
529
4
100
144
324
784
1296
2209
3364
2916
1024
4
1600
4761
6084
3364
484
9
100
144
361
729
1296
2209
3249
2916
1024
4
1600
4900
6084
3364
484
9
100
144
324
729
1296
2209
3364
2916
961
1
1521
4761
6084
3481
529
9
121
169
361
729
1296
2209
3136
2916
961
1
1521
4624
5929
3481
576
4
100
144
324
729
1225
2209
3249
2916
1089
0
1444
4624
5929
3481
576
4
81
121
289
729
1296
2209
3249
2916
1156
0
1369
4489
5929
3600
625
1
81
121
324
729
1156
2116
3136
2500
841
9
1444
3969
4900
2704
324
36
121
121
289
676
1089
1764
2601
2209
729
1
1089
3249
4096
2304
400
0
9
16
144
484
900
1521
2209
2304
1089
36
576
2500
3844
2704
625
9
4
4
100
441
841
1369
2116
2401
1296
121
256
1936
3721
3249
961
36
1
9
64
361
784
1296
2116
2500
1521
256
196
1849
3844
3600
1225
49
1
4
49
324
784
1225
2025
2601
1764
361
81
1521
3600
3844
1521
121
1
1
36
225
676
1225
2025
2704
2025
484
36
1369
3481
3844
1681
144
0
1
16
196
625
1156
1936
2500
1936
576
16
1156
3136
3721
1764
169
0
1
16
169
529
1024
1681
2401
2116
729
1
1024
2916
3721
2116
324
0
9
25
144
529
1024
1681
2401
2304
900
9
729
2601
3844
2601
576
9
4
16
121
484
961
1444
2209
2401
1225
81
361
2116
3721
3025
900
25
4
9
100
441
900
1444
2116
2401
1444
169
196
1849
3721
3364
1156
81
0
1
49
361
841
1296
2025
2500
1681
324
121
1681
3721
3600
1296
81
1
1
25
289
676
1225
1936
2601
1849
441
64
1369
3481
3600
1444
144
0
1
16
225
625
1156
1849
2601
1936
529
25
1225
3249
3600
1600
169
0
1
16
196
576
1024
1764
2601
1936
625
16
1156
3249
3600
1681
196
0
1
16
169
576
1024
1764
2601
2116
676
1
1024
3025
3721
2025
324
0
9
25
169
529
1024
1681
2401
2116
841
1
784
2601
3721
2601
576
4
16
16
100
441
961
1521
2209
2401
1225
81
400
2116
3844
3136
841
25
1
4
81
441
900
1369
2116
2401
1444
225
196
1764
3721
3364
1156
81
0
0
49
324
784
1296
1936
2601
1681
324
121
1600
3600
3481
1296
81
0
1
36
256
676
1156
1849
2601
1849
441
49
1296
3364
3600
1521
144
0
0
16
196
576
1089
1849
2500
1936
576
25
1225
3136
3481
1600
169
0
1
16
169
576
1089
1764
2401
1936
676
1
1024
3025
3721
2025
289
0
4
16
169
529
1089
1681
2401
2116
841
4
729
2601
3721
2401
529
4
9
16
121
484
900
1521
2209
2304
1225
64
441
2116
3600
2916
784
36
1
4
64
361
841
1369
2116
2401
1444
196
196
1681
3721
3364
1156
64
1
1
36
324
784
1225
2025
2500
1681
324
121
1600
3600
3481
1369
100
0
1
25
289
729
1296
2116
2704
1764
400
81
1521
3481
3481
1521
144
0
0
25
225
676
1089
1849
2601
1849
484
36
1296
3249
3600
1521
144
1
1
25
196
625
1089
1849
2601
2025
576
16
1225
3249
3721
1681
196
0
1
16
169
576
1024
1681
2401
2025
676
4
1024
3025
3721
2025
289
0
4
16
144
576
1089
1764
2401
2209
841
1
841
2809
3844
2401
484
1
9
9
81
441
961
1444
2209
2500
1369
144
289
2025
3844
3249
961
36
1
4
64
361
784
1296
2025
2401
1521
256
169
1764
3600
3481
1156
81
0
0
36
289
784
1369
2116
2601
1681
324
121
1600
3600
3481
1369
100
0
0
25
256
729
1225
2025
2704
1849
441
64
1369
3364
3481
1521
144
0
0
16
196
625
1089
1849
2500
1936
576
25
1225
3136
3600
1600
144
1
1
16
169
576
1089
1764
2401
2025
625
16
1156
3136
3600
1764
169
1
4
16
169
529
961
1681
2401
2025
784
0
900
2809
3721
2401
441
0
9
16
121
529
961
1600
2304
2304
1089
49
441
2304
3844
3025
729
16
4
9
100
441
900
1369
2116
2401
1369
144
256
1936
3844
3249
1024
49
1
4
64
361
841
1369
2116
2500
1600
256
144
1764
3600
3600
1225
81
1
1
36
289
729
1225
2025
2601
1849
400
81
1444
3481
3481
1444
121
0
0
16
225
729
1156
1936
2500
1849
484
49
1369
3249
3364
1521
121
0
1
16
196
625
1089
1764
2500
1936
529
25
1225
3249
3600
1681
196
0
4
16
196
625
1089
1849
2401
2025
676
1
961
3025
3844
2209
361
0
9
16
144
529
1024
1600
2304
2209
1024
16
676
2601
3844
2601
529
4
9
16
121
484
961
1521
2304
2401
1156
49
441
2304
3844
2916
784
16
4
4
81
400
900
1369
2025
2401
1444
225
196
1764
3844
3481
1156
49
0
1
49
324
784
1296
2025
2601
1681
289
121
1600
3721
3481
1296
81
0
1
36
289
729
1156
1936
2500
1849
400
64
1444
3481
3600
1444
121
0
1
25
225
676
1089
1849
2601
1849
484
25
1296
3364
3600
1521
144
0
0
16
196
625
1089
1849
2601
2116
676
9
1156
3136
3721
1936
256
0
4
16
144
576
1089
1849
2500
2116
784
0
900
2916
3844
2209
400
0
9
25
144
529
961
1521
2304
2209
1089
36
529
2401
3844
2809
676
9
4
9
100
441
841
1444
2116
2401
1296
144
225
1936
3721
3136
961
49
0
1
49
361
841
1369
2116
2500
1600
256
121
1600
3600
3481
1296
100
0
1
36
324
784
1225
1936
2500
1764
400
81
1521
3481
3600
1444
121
0
0
25
225
676
1225
1936
2601
1936
529
36
1296
3364
3600
1600
169
0
1
25
196
625
1089
1849
2500
2025
576
16
1156
3249
3721
1764
196
0
1
16
196
625
1089
1764
2401
2025
676
1
961
3025
3721
2209
324
0
16
25
144
484
1024
1681
2401
2304
900
9
729
2601
3844
2601
529
4
9
9
100
441
961
1444
2209
2401
1296
121
289
2025
3721
3136
961
36
1
4
64
361
841
1296
2025
2500
1681
289
144
1764
3844
3600
1225
81
0
1
36
324
841
1369
2116
2601
1764
324
121
1681
3721
3600
1369
100
0
1
25
256
676
1225
1936
2601
1849
441
49
1369
3481
3600
1521
144
0
4
25
196
625
1089
1849
2500
1936
576
16
1156
3136
3600
1681
196
0
1
16
196
576
1024
1764
2500
2025
625
9
1089
3025
3721
1936
256
0
4
16
169
576
1024
1681
2500
2209
841
0
900
2809
3844
2500
484
1
16
25
169
576
1024
1600
2304
2209
1024
25
625
2601
3844
2704
625
9
9
16
100
441
961
1444
2304
2500
1296
100
324
2116
3844
3136
841
36
1
9
64
361
841
1296
2025
2401
1521
256
169
1849
3721
3481
1156
81
1
4
49
289
784
1225
2025
2500
1681
289
121
1600
3600
3600
1296
100
1
4
36
289
676
1225
2025
2601
1764
361
100
1521
3481
3481
1369
100
0
1
25
225
676
1156
1936
2601
1849
484
49
1369
3364
3600
1521
121
1
1
16
225
676
1156
1849
2500
1936
529
25
1296
3364
3600
1681
196
0
4
25
196
625
1156
1849
2500
2025
625
9
1089
3136
3844
1936
289
0
9
16
144
576
1089
1764
2500
2116
841
4
784
2704
3844
2500
529
4
9
9
121
441
961
1521
2304
2401
1225
81
361
1936
3721
3025
900
36
1
4
49
400
841
1369
2116
2401
1521
225
169
1764
3721
3481
1156
64
0
1
36
256
784
1296
2116
2601
1681
324
100
1600
3600
3600
1296
100
0
0
16
256
784
1296
2025
2601
1849
441
64
1444
3481
3481
1521
144
0
0
16
196
625
1156
1936
2500
2025
576
25
1225
3249
3600
1681
169
0
1
16
196
576
1089
1849
2500
1936
576
16
1156
3136
3600
1849
225
0
4
16
169
576
1089
1764
2500
2116
729
0
961
2916
3844
2401
400
0
9
16
121
529
1024
1600
2304
2209
1024
25
625
2601
3844
2704
576
4
9
16
121
484
961
1521
2304
2401
1225
81
361
2025
3844
3249
961
36
1
4
64
361
841
1369
2116
2500
1521
225
196
1849
3721
3364
1156
64
1
1
36
324
784
1369
2116
2601
1764
324
121
1681
3600
3600
1369
100
0
0
16
256
729
1225
1936
2601
1849
441
64
1369
3364
3600
1444
144
0
0
16
225
676
1225
1936
2601
1849
529
25
1296
3249
3600
1681
169
0
1
16
169
576
1089
1764
2500
2025
676
9
1089
3025
3721
2025
289
0
9
25
169
529
1024
1681
2304
2025
784
1
784
2601
3721
2401
484
4
4
9
121
484
1024
1521
2304
2304
1225
81
361
2025
3844
3136
900
25
4
9
81
400
900
1444
2116
2500
1444
169
196
1849
3721
3481
1156
81
1
1
36
324
841
1369
2116
2601
1764
324
144
1600
3600
3600
1369
100
0
0
25
256
729
1225
2025
2809
1849
400
81
1444
3364
3600
1369
121
0
0
16
225
676
1156
1936
2500
1936
529
49
1369
3364
3600
1521
144
0
0
16
196
625
1225
1936
2601
2025
529
25
1225
3249
3721
1764
196
0
4
16
169
576
1089
1849
2601
2025
676
1
1024
3025
3844
2209
324
0
9
25
169
576
1089
1681
2401
2116
900
4
676
2601
3844
2704
625
4
9
16
100
441
961
1521
2209
2401
1296
121
324
2025
3844
3136
900
36
1
4
64
361
841
1444
2116
2500
1444
225
196
1849
3721
3364
1156
81
0
0
49
324
841
1369
2116
2500
1681
324
100
1600
3600
3600
1369
100
1
0
25
256
729
1296
2025
2601
1849
441
81
1444
3481
3600
1444
121
0
1
16
196
625
1156
1936
2601
1936
529
36
1296
3249
3600
1600
169
0
4
25
225
625
1156
1936
2500
1936
529
16
1225
3249
3721
1849
225
0
4
16
169
625
1089
1849
2500
2025
729
0
961
2916
3844
2304
400
0
9
16
144
529
1024
1600
2401
2304
1024
25
576
2500
3844
2704
625
9
4
4
100
484
961
1521
2209
2304
1225
100
289
2025
3721
3249
961
36
1
4
64
361
900
1444
2116
2401
1444
225
169
1764
3721
3600
1225
81
0
1
49
324
784
1296
2116
2601
1681
361
100
1600
3600
3481
1296
81
0
0
25
256
729
1225
1936
2601
1764
400
64
1444
3364
3600
1444
121
0
1
16
225
625
1156
1849
2601
1936
529
25
1296
3364
3600
1681
169
0
1
25
196
625
1089
1936
2601
1936
576
16
1225
3136
3600
1849
256
0
1
16
196
676
1225
1849
2500
2025
676
4
1024
3025
3844
2209
361
0
9
16
144
576
1089
1681
2401
2209
900
9
729
2601
3721
2704
576
4
9
16
100
441
1024
1521
2209
2304
1156
64
400
2209
3721
2916
841
25
1
4
81
400
900
1444
2116
2500
1521
225
225
1849
3844
3481
1156
49
1
1
49
324
841
1369
2116
2500
1600
289
144
1681
3721
3481
1296
64
1
1
25
256
676
1296
2025
2601
1849
400
81
1444
3481
3600
1444
121
0
0
16
225
625
1156
2025
2704
2025
529
36
1369
3249
3721
1681
169
0
4
25
196
676
1156
1849
2500
1936
529
9
1089
3025
3721
1936
289
0
4
16
169
576
1089
1849
2401
2116
784
0
841
2809
3721
2401
441
0
16
25
144
484
1024
1600
2304
2209
961
25
576
2500
3721
2809
676
9
9
9
81
441
961
1444
2209
2500
1369
169
256
1936
3844
3364
1024
36
1
4
64
361
841
1369
2116
2401
1444
225
169
1764
3600
3481
1225
81
1
0
25
289
729
1369
2116
2601
1849
361
81
1600
3600
3600
1444
121
0
1
36
225
676
1296
2025
2601
1849
484
36
1369
3364
3600
1600
169
0
1
25
196
676
1225
1936
2500
1936
529
16
1156
3249
3721
1849
196
0
1
16
169
576
1156
1849
2500
2025
676
4
1024
2916
3721
2116
361
0
9
16
144
576
1089
1764
2401
2116
841
4
729
2601
3721
2704
576
4
9
16
100
484
961
1600
2209
2304
1156
100
361
2116
3844
3136
900
25
1
4
81
441
900
1444
2116
2401
1369
196
196
1764
3721
3481
1156
64
0
1
49
324
841
1369
2116
2601
1681
324
121
1681
3721
3600
1369
100
0
1
25
256
784
1296
2025
2500
1849
400
81
1444
3364
3481
1369
144
0
0
16
225
676
1156
1936
2500
1936
529
36
1296
3364
3600
1681
144
0
1
16
196
625
1089
1936
2500
1936
576
25
1225
3136
3481
1764
196
0
1
16
144
576
1089
1849
2601
2025
676
1
961
3025
3721
2209
361
0
9
16
121
529
1024
1600
2304
2209
1024
16
676
2500
3844
2704
576
4
9
9
100
441
961
1521
2304
2401
1296
100
361
2025
3844
3249
900
36
1
4
64
361
841
1369
2116
2401
1444
196
196
1764
3721
3364
1156
64
1
1
36
324
784
1296
2116
2500
1681
289
121
1600
3600
3481
1296
81
0
1
16
225
729
1296
2025
2601
1849
441
49
1444
3364
3600
1600
169
0
0
16
225
676
1225
1936
2601
1849
529
36
1296
3249
3481
1681
169
0
0
16
196
625
1225
1849
2601
2025
625
9
1089
3136
3721
2025
256
0
9
25
169
576
1024
1681
2401
2116
784
1
841
2704
3844
2500
484
0
9
16
144
529
1024
1521
2304
2304
1089
49
529
2304
3844
2809
676
9
4
4
64
400
900
1444
2116
2401
1444
196
225
1936
3844
3364
1089
49
1
4
64
324
841
1444
2209
2500
1600
256
144
1681
3721
3481
1296
81
0
1
36
289
729
1225
2025
2500
1764
400
81
1521
3481
3721
1444
100
1
4
16
196
625
1156
1936
2601
1936
529
25
1296
3364
3600
1600
169
0
1
16
196
625
1089
1849
2500
2025
676
9
1089
3025
3721
2025
289
0
9
16
144
529
1024
1764
2304
2116
841
1
784
2704
3721
2500
484
0
16
25
144
484
1024
1600
2304
2209
1024
25
576
2500
3969
2809
625
9
4
9
100
484
1089
1681
2304
2401
1225
81
400
2209
3844
3136
900
36
4
4
64
361
841
1369
2116
2500
1600
256
144
1764
3600
3481
1156
64
0
0
25
324
784
1296
1936
2500
1764
361
81
1444
3600
3600
1444
100
1
4
16
169
576
1156
2025
2809
2025
529
36
1444
3600
3844
1681
169
0
9
25
225
676
1089
1849
2500
1936
625
9
1089
3136
3721
2025
256
0
4
16
144
576
1089
1681
2304
2025
729
0
784
2704
3721
2401
484
1
9
16
121
484
1024
1600
2304
2304
1089
36
529
2304
3844
2809
729
9
4
16
100
441
961
1600
2209
2401
1225
100
361
2116
3844
3249
961
49
1
1
64
361
841
1369
2209
2601
1600
256
169
1764
3721
3481
1225
81
0
1
36
289
841
1369
2116
2601
1764
361
100
1600
3481
3481
1296
100
0
0
16
225
676
1225
2025
2601
1849
441
64
1444
3364
3481
1444
121
0
0
16
225
625
1089
1849
2601
1849
529
25
1296
3364
3600
1521
144
0
1
9
196
625
1089
1849
2500
2025
625
16
1156
3136
3721
1849
256
0
4
16
196
625
1156
1764
2401
2025
729
0
900
2916
3844
2304
400
0
9
9
121
484
1024
1600
2304
2401
1089
49
484
2304
3844
2809
676
16
4
9
121
400
900
1444
2116
2304
1369
144
324
2025
3969
3364
961
36
1
4
64
361
900
1444
2025
2500
1600
225
169
1764
3600
3481
1225
81
1
1
36
324
784
1225
1936
2601
1764
361
81
1600
3600
3600
1444
121
0
0
25
225
676
1225
2025
2601
1936
529
36
1296
3481
3721
1600
144
1
4
25
196
625
1089
1849
2500
1936
529
25
1225
3136
3600
1764
196
0
1
16
169
625
1089
1849
2500
2116
729
1
1089
3136
3844
2209
361
0
9
25
169
576
1089
1681
2401
2304
900
9
729
2601
3844
2601
576
1
16
16
100
441
900
1600
2304
2401
1156
81
441
2209
3844
2916
784
16
4
4
81
400
841
1369
2025
2500
1521
196
196
1764
3721
3364
1156
64
1
4
49
324
784
1296
2025
2500
1600
256
121
1600
3600
3481
1369
100
1
4
49
289
729
1225
1936
2401
1681
361
81
1444
3364
3481
1369
100
0
1
16
225
625
1089
1936
2601
1849
484
36
1296
3249
3481
1521
121
0
1
16
169
576
1024
1849
2601
1936
576
25
1225
3136
3481
1600
169
0
1
9
196
625
1089
1681
2401
2025
676
4
1024
3025
3721
2025
289
0
9
16
169
529
1024
1681
2401
2209
841
1
784
2704
3721
2601
529
4
9
16
100
484
900
1521
2209
2304
1225
81
361
1936
3721
2916
900
36
1
4
64
361
841
1296
2025
2304
1444
196
169
1681
3600
3249
1089
64
0
1
49
289
784
1296
1936
2401
1600
324
121
1600
3481
3364
1296
81
0
0
16
225
729
1225
2025
2601
1849
441
64
1369
3249
3481
1521
144
0
1
16
169
576
1024
1764
2500
1936
576
9
1089
3025
3481
1681
196
0
4
9
144
484
961
1600
2209
1936
784
1
784
2500
3481
2209
400
0
9
9
100
441
961
1369
2025
2116
1089
81
324
1936
3481
2916
784
25
4
4
64
361
784
1296
1936
2304
1369
196
196
1681
3481
3249
1089
49
1
1
49
324
729
1225
1936
2401
1600
324
121
1521
3481
3364
1225
100
0
0
25
225
625
1156
2025
2500
1849
441
64
1369
3136
3249
1296
100
0
0
9
169
529
1024
1681
2304
1764
529
16
1089
2916
3249
1521
144
0
0
9
144
529
961
1681
2304
1849
676
0
841
2601
3249
2025
324
0
9
16
100
484
900
1444
2025
2025
961
25
484
2025
3249
2500
625
9
4
9
64
361
784
1296
1936
2304
1296
169
196
1681
3481
3136
1089
36
4
4
49
289
729
1225
1936
2401
1521
289
100
1521
3364
3249
1225
81
0
0
16
196
625
1156
1849
2401
1764
441
36
1225
3136
3364
1369
144
0
0
9
144
529
961
1681
2304
1849
625
1
900
2704
3364
1936
256
0
9
9
100
441
841
1444
2116
2025
961
25
441
2025
3249
2500
529
4
9
4
49
361
784
1225
1764
2116
1296
169
196
1600
3249
2916
900
25
4
4
49
289
729
1225
1849
2209
1369
256
121
1521
3364
3249
1225
64
1
1
25
225
676
1156
1849
2401
1681
400
49
1296
3025
3249
1369
121
0
0
9
169
529
1024
1764
2401
1936
625
9
1024
2916
3364
1600
196
0
1
9
121
529
961
1521
2209
1936
729
4
676
2401
3249
2209
361
0
4
9
81
400
900
1296
1936
2025
1089
81
289
1764
3249
2601
729
16
9
4
64
289
729
1156
1764
2116
1296
196
169
1600
3364
3136
1089
49
1
4
49
289
729
1225
1849
2401
1600
289
100
1444
3364
3249
1225
81
1
0
16
196
625
1089
1849
2401
1764
441
49
1225
3025
3249
1369
121
0
0
9
144
484
1024
1681
2401
1936
625
1
961
2704
3364
1681
225
0
4
9
121
484
900
1444
2025
1936
841
16
529
2116
3249
2209
441
1
9
9
64
361
784
1225
1764
2025
1089
121
256
1764
3364
2809
784
16
4
4
64
324
729
1156
1849
2116
1296
196
144
1521
3364
3136
1024
36
4
4
36
225
676
1156
1849
2304
1521
324
81
1296
3025
3136
1225
100
0
0
9
196
576
1024
1764
2304
1764
484
25
1156
2916
3136
1369
121
0
0
9
144
529
961
1600
2209
1849
576
1
900
2704
3249
1764
256
1
9
4
81
400
841
1296
1936
2025
1024
64
400
1936
3249
2401
529
4
9
4
49
289
676
1225
1764
2116
1225
144
196
1600
3249
2809
900
25
9
4
36
256
729
1156
1764
2116
1444
256
121
1444
3249
3136
1156
64
1
0
16
196
625
1089
1849
2209
1681
400
49
1225
2916
3136
1296
100
1
0
9
169
529
1024
1681
2209
1764
576
4
1024
2704
3249
1521
169
0
1
4
121
441
900
1444
2025
1849
729
4
625
2209
3025
2025
361
0
9
9
64
324
729
1225
1764
1936
1024
100
256
1600
3025
2500
676
9
9
4
36
256
625
1089
1764
2116
1225
196
144
1444
3025
2916
900
25
4
4
16
196
625
1024
1681
2209
1444
324
64
1225
2916
2916
1225
81
0
0
9
144
529
961
1681
2209
1681
529
9
961
2601
3249
1681
225
1
4
4
81
400
841
1369
1936
2025
900
36
400
1764
3025
2304
529
4
4
4
49
289
676
1156
1681
1936
1156
169
169
1444
2916
2704
784
25
1
1
25
225
576
1024
1681
2116
1444
256
100
1369
3025
2916
1024
49
1
0
16
225
576
1024
1681
2209
1600
361
49
1156
2809
3025
1296
100
0
0
9
144
529
1024
1681
2304
1764
529
9
1024
2704
3249
1521
169
1
4
9
121
484
900
1521
2025
1849
676
0
676
2304
3249
2025
361
0
9
9
81
400
841
1296
1936
2025
1089
100
256
1681
3249
2704
729
16
4
4
64
324
729
1156
1849
2116
1296
144
196
1681
3364
2916
841
25
1
1
25
225
676
1156
1849
2304
1521
324
81
1369
3136
3249
1225
