8836
7396
4900
1444
0
484
961
1225
1521
1849
2304
3721
4900
3249
529
324
3364
6724
5625
1521
1
676
1296
1849
2304
2401
2601
3364
3364
1369
1
2116
7225
11236
8836
2809
81
256
900
1764
2601
3249
4225
5776
5041
1764
9
2809
8464
11881
8649
2704
225
36
400
1024
1849
2704
4356
6400
5625
2116
1
2209
6889
8649
5329
1369
64
25
196
529
961
1369
2500
4225
3721
1225
9
2025
5625
6400
3136
324
64
400
529
729
841
1024
1849
2916
2209
361
361
3481
7396
7225
3025
144
256
900
1369
1764
2025
2304
3249
3721
1936
49
1296
6084
10404
8836
3136
144
196
676
1296
2025
2704
3600
5041
4900
2025
9
1849
7056
10609
8281
2601
169
81
361
900
1444
2116
3364
5184
4900
2025
4
2025
6561
8649
5329
1296
16
121
361
676
1024
1444
2601
4096
3600
1225
25
2401
6561
7569
3969
529
36
361
676
1024
1225
1521
2704
3844
2704
441
441
3969
8100
7744
3136
196
144
484
961
1444
1936
2304
3364
3969
2116
121
900
5041
9409
8100
2704
100
144
529
961
1521
2025
2704
3969
4225
1849
9
1681
6241
9604
7056
2025
25
196
529
1089
1681
2116
3025
4356
3844
1369
16
2401
7056
9025
5625
1156
0
256
625
1089
1600
2116
3249
4489
3600
1024
100
3136
7921
8836
4356
625
16
289
576
961
1296
1849
3249
4624
3481
676
289
3721
7921
7744
3364
289
64
324
529
900
1369
1936
3364
4489
2704
289
676
4356
8464
7396
2601
100
144
441
729
1225
1600
2209
3364
3721
1764
25
1296
5476
8649
6724
1849
9
289
625
1024
1521
1849
2704
3969
3844
1444
4
2304
7056
9409
6241
1369
0
289
576
1024
1521
2116
3136
4624
3969
1296
49
2704
7396
8836
4900
784
4
225
484
841
1296
1764
3025
4356
3600
961
100
2809
7225
7569
3600
400
49
289
441
729
1089
1521
2809
4096
3025
529
324
3600
7569
7396
2916
144
144
441
676
1024
1369
1936
3136
3844
2116
121
900
4900
8836
7396
2304
25
289
625
961
1369
1764
2304
3481
3721
1681
9
1521
5776
9025
6561
1681
1
256
441
676
1089
1521
2401
3969
4225
1764
4
1764
6084
8649
5929
1225
4
361
529
729
1024
1369
2304
3721
3481
1296
9
2116
6400
8281
4761
729
64
441
625
841
1089
1369
2304
3600
2916
784
100
2704
6889
7744
3844
400
121
441
576
841
1225
1681
2809
3969
2809
441
361
3600
7569
7569
3136
169
144
441
625
961
1369
1936
3136
3969
2500
225
625
4225
8281
7569
2601
64
225
441
625
1024
1444
2025
3364
3844
2025
100
900
4761
8464
6889
1936
1
289
400
625
1024
1444
2209
3481
3721
1681
16
1444
5776
8464
5929
1156
25
441
529
676
961
1369
2304
3721
3364
1156
25
2304
6561
8100
4624
625
81
484
576
784
1089
1521
2500
3721
2916
676
169
2916
6889
7744
3600
289
144
441
529
784
1156
1600
2809
4096
2809
441
400
3721
7569
7225
2916
121
225
441
576
961
1296
1849
3249
4096
2304
169
841
4761
8649
7225
2209
16
324
441
576
961
1369
2025
3364
3844
1936
64
1024
4900
8281
6561
1849
1
256
400
576
961
1369
2116
3600
3844
1600
4
1444
5329
7921
5776
1296
4
361
441
576
961
1296
2116
3364
3600
1444
1
1600
5625
8100
5329
961
64
484
529
625
961
1296
2116
3249
3136
1089
16
2116
6084
8100
4900
676
121
529
576
784
1156
1521
2500
3721
2916
729
196
3136
7569
8281
3969
324
169
484
625
961
1296
1849
3025
4225
2916
484
361
3721
7921
7921
3249
196
121
361
529
900
1369
2025
3364
4225
2401
196
676
4489
8464
7225
2209
16
225
400
576
961
1444
2025
3364
3844
1936
64
1024
4761
8281
6561
1681
0
324
400
576
961
1369
2025
3364
3600
1600
16
1296
5329
8281
5929
1296
9
400
484
676
1024
1444
2304
3600
3364
1225
16
2209
6400
8281
4900
729
64
484
529
729
1089
1521
2401
3844
3249
900
81
2704
6889
8281
4356
484
121
529
576
841
1225
1600
2809
4096
3136
676
225
3481
7921
8100
3600
289
121
484
676
961
1369
1849
3136
4225
2704
324
576
4225
7921
7396
2704
100
144
361
529
900
1369
2116
3481
4225
2209
144
900
4900
8836
7225
2025
9
256
400
576
1024
1521
2209
3600
3969
1936
25
1444
5476
8464
6241
1444
4
361
441
576
961
1444
2304
3600
3600
1444
0
1849
5929
8281
5476
1024
36
441
576
729
1089
1521
2401
3721
3249
1024
49
2704
7056
8649
4624
529
144
529
625
841
1225
1681
2809
4096
3025
625
225
3364
7569
7921
3721
324
100
441
576
961
1369
1936
3249
4356
2809
400
484
4225
8281
7744
2916
121
196
400
625
1024
1369
2025
3481
4225
2209
100
961
5041
8836
7396
2116
9
289
484
729
1156
1600
2209
3600
3844
1681
9
1521
5625
8649
6561
1600
4
441
576
729
1089
1444
2304
3600
3600
1521
0
2025
6241
8836
5929
1156
25
529
676
961
1225
1600
2500
3721
3364
1024
64
2809
7569
9025
4900
576
121
576
729
1024
1369
1849
2916
4225
3249
625
289
3844
8100
8281
3481
225
144
400
625
1024
1444
2025
3364
4356
2704
225
729
4900
9216
8100
2704
36
324
576
784
1225
1521
2116
3481
3844
1936
49
1225
5476
9025
7225
1849
4
289
484
784
1225
1600
2401
3844
3969
1681
1
1764
6241
9025
6400
1444
1
400
625
900
1369
1681
2601
4225
3721
1225
25
2304
6724
8836
5476
1089
1
361
729
1225
1600
1936
3025
4225
3481
841
169
3481
8464
9409
4900
625
49
484
841
1296
1681
2116
3481
4624
3364
625
361
4096
8836
8836
3844
400
36
324
784
1296
1764
2401
3721
4761
2916
324
625
4761
9409
8836
3364
256
100
484
961
1600
2025
2704
4096
4489
2209
49
1444
5929
9801
7744
2304
49
196
529
1024
1600
2116
3025
4356
3969
1444
9
2401
7396
9801
6241
1296
1
361
784
1296
1681
2116
3136
4489
3721
961
100
3249
8100
9409
5041
729
16
400
784
1296
1681
2116
3481
4900
3481
676
361
4225
9216
9409
4225
441
64
484
961
1444
1849
2401
3721
4624
2704
256
729
4900
9409
8649
3364
225
100
441
961
1600
1936
2704
4096
4356
2116
49
1444
6084
9801
7744
2304
36
196
529
1089
1600
2116
2916
4489
4096
1521
9
2601
7569
9801
6084
1225
4
400
729
1156
1521
1936
3025
4489
3600
1024
121
3249
8100
9025
4489
625
36
400
676
1156
1681
2304
3481
4761
3249
484
441
4356
9025
8649
3721
324
81
484
900
1444
1764
2304
3600
4624
2704
225
784
5041
9604
8649
3249
169
144
484
1024
1600
2116
2809
4096
4225
1936
16
1600
6241
9801
7569
2116
25
256
625
1089
1600
2116
3025
4624
4356
1444
25
2704
7921
10000
5929
1156
1
361
784
1296
1681
2116
3249
4761
3721
841
225
3844
8836
9216
4356
529
36
400
841
1296
1764
2209
3481
4624
3136
484
441
4225
8836
8836
3844
400
36
400
900
1521
1936
2500
3844
4624
2500
144
1024
5476
9604
8281
2809
144
144
576
1156
1764
2304
3025
4356
3969
1444
16
2601
7744
10000
6241
1225
4
400
729
1156
1600
2116
3249
4489
3481
961
100
2916
7744
9216
4900
729
25
400
729
1156
1444
1849
3249
4761
3481
676
361
4225
8836
8649
3721
361
64
441
900
1369
1764
2304
3481
4489
2704
256
784
4900
9409
8464
3249
196
144
529
1089
1600
2116
2809
4225
4356
1849
4
1764
6561
10000
7744
2209
16
324
841
1369
1764
2116
3025
4489
3969
1369
36
2809
8100
10000
5929
1156
0
324
784
1296
1849
2304
3481
4900
3721
900
196
3721
8836
9216
4356
576
36
361
784
1296
1600
2116
3600
5184
3481
484
576
4900
9604
9025
3600
289
100
484
1024
1521
1849
2500
3844
4356
2304
100
1225
5929
10000
7921
2401
49
225
676
1225
1681
2025
3025
4489
4096
1296
36
2916
8281
10201
6084
1156
1
361
784
1296
1764
2209
3481
5041
4096
1156
169
3844
9216
9801
4761
625
25
400
841
1296
1600
2025
3481
4624
3364
676
324
4356
9216
8836
3721
361
49
400
900
1444
1764
2401
3844
4624
2500
144
1089
5776
10404
8649
2916
81
196
676
1296
1849
2304
3136
4624
4225
1444
16
2601
8100
10404
6400
1369
0
289
729
1225
1681
2209
3600
5041
3969
961
144
3364
8281
9216
4489
625
16
361
784
1296
1681
2116
3481
4761
3249
484
529
4489
9409
8836
3481
225
121
529
1024
1600
1936
2500
3844
4356
2116
36
1444
6084
10000
8100
2401
49
196
576
1156
1849
2304
3249
4761
4225
1600
9
2704
7744
10201
6889
1600
9
256
676
1225
1681
2209
3481
5041
4096
1156
81
3136
8100
9409
4900
841
4
289
729
1369
1764
2116
3364
4761
3481
676
361
4096
8836
9025
4096
441
64
529
961
1521
1764
2116
3481
4761
3025
324
784
5041
9801
9025
3600
289
100
576
1089
1681
2025
2809
4225
4489
2025
36
1521
6241
10000
7921
2304
64
196
576
1089
1681
2116
3249
4761
4225
1369
25
2809
7921
9801
5625
1089
1
324
784
1225
1600
2025
3249
4624
3721
961
169
3600
8649
9216
4489
576
49
441
841
1369
1681
2116
3481
4761
3136
361
625
4761
9216
8649
3600
289
81
529
1089
1681
2025
2601
3969
4356
2209
64
1225
5776
9801
8464
2809
121
121
529
1225
1936
2401
3364
4900
4356
1600
4
2500
7569
10201
6724
1521
1
324
676
1156
1600
2025
3136
4761
3969
1156
64
3136
8100
9409
4900
784
16
400
784
1225
1681
2116
3481
4900
3481
729
324
4225
9216
9604
4356
484
49
441
900
1444
1849
2401
3721
4761
2916
361
625
4900
9801
9216
3721
289
81
529
1089
1681
2209
2809
4225
4489
2116
64
1369
6084
10000
8100
2500
81
169
625
1089
1600
2025
3025
4489
4489
1681
1
2500
7744
10000
6400
1369
0
289
676
1225
1600
2116
3249
4624
3844
1024
100
3364
8281
9216
4624
676
25
400
900
1369
1681
2209
3600
4761
3249
529
484
4489
9216
8836
3600
324
64
441
900
1369
1849
2304
3721
4624
2601
225
900
5329
9801
8649
3136
169
121
529
1024
1600
2025
2809
4489
4489
1849
1
2116
6889
9604
6724
1681
4
289
676
1156
1521
1936
2809
4356
3969
1369
25
2704
7744
9409
5476
1024
4
361
784
1296
1764
2116
3249
4624
3481
841
196
3600
8649
9216
4624
625
25
441
900
1444
1764
2304
3600
5041
3249
484
529
4624
9604
9216
3721
324
64
441
900
1369
1764
2500
4096
4900
2704
169
961
5625
10000
8649
2916
121
169
529
1024
1521
1936
2916
4489
4489
1764
0
2304
7225
9604
6561
1600
4
256
625
1089
1681
2116
3136
4624
4096
1296
49
3025
8100
9801
5625
961
4
361
784
1369
1764
2209
3364
4624
3600
900
196
3600
8649
9409
4761
625
25
441
841
1296
1681
2209
3600
4900
3249
529
441
4356
9025
8836
3844
400
49
400
900
1521
1936
2500
3844
4489
2500
196
961
5329
9801
8649
3136
169
121
529
1024
1600
2025
2916
4356
4489
1936
9
1764
6400
9801
7225
2025
25
256
676
1225
1681
2025
3025
4356
3969
1369
25
2704
7744
9604
5625
1024
1
324
729
1225
1681
2025
3364
4761
3600
784
196
3481
8464
9216
4624
625
25
441
900
1444
1764
2304
3600
4900
3249
441
576
4624
9216
8836
3844
361
64
484
900
1444
1936
2601
3844
4624
2601
196
961
5476
9801
8836
3136
196
144
576
1156
1764
2209
2809
4225
4356
1849
4
1936
6724
9801
7225
1936
25
225
625
1089
1600
2025
3136
4624
4096
1444
25
2704
7921
10000
5776
1024
9
361
784
1296
1681
2116
3249
4624
3600
900
196
3721
8836
9409
4489
529
36
441
900
1369
1681
2116
3600
4761
3136
400
529
4489
9216
8836
3600
324
64
484
961
1521
1936
2500
3844
4489
2500
144
961
5329
9801
8464
2916
144
144
576
1156
1681
2025
2916
4356
4225
1681
0
2116
7056
10000
6889
1764
9
289
729
1156
1681
2116
3136
4761
4096
1296
49
3136
8100
9604
5184
961
4
324
729
1225
1681
2025
3364
4761
3721
961
144
3481
8464
9409
4761
729
9
361
729
1296
1681
2116
3600
4900
3600
625
361
4225
9025
9216
4096
400
64
484
900
1444
1849
2401
3721
4624
2809
289
784
5041
9801
9025
3364
225
100
529
1024
1681
2025
2809
4225
4356
1936
36
1521
6084
9409
7396
2304
64
169
576
1089
1681
2025
3025
4624
4225
1444
9
2500
7744
9604
5929
1225
0
289
729
1225
1600
2025
3249
4624
3721
1089
100
3136
8100
9216
4761
729
9
361
900
1521
1849
2116
3249
4489
3249
576
400
4356
9216
9216
4096
441
64
484
1024
1521
1849
2500
3844
4489
2704
196
841
5184
9604
8464
3249
225
100
484
1024
1600
2209
3136
4624
4489
1764
0
1936
6724
9801
7396
2116
16
324
784
1225
1600
2025
3025
4489
4096
1444
25
2601
7744
9604
5776
1225
0
289
676
1156
1600
2116
3364
4761
3844
1024
121
3481
8464
9025
4356
576
9
324
784
1296
1764
2209
3481
4900
3364
529
484
4489
9216
9216
3844
400
49
441
900
1444
1849
2401
3721
4489
2704
196
900
5184
9604
8464
2916
144
121
484
1024
1521
2025
2916
4225
4225
1849
9
1764
6561
10000
7225
2025
16
289
676
1225
1600
2025
3025
4761
4225
1369
36
2916
8100
9801
5625
1024
1
361
784
1369
1764
2116
3364
4761
3721
900
196
3844
8836
9409
4489
625
16
400
841
1444
1936
2401
3721
4761
3025
400
576
4624
9604
9025
3600
289
100
529
1089
1600
2025
2601
3969
4356
2209
64
1296
5929
10000
8100
2500
64
169
576
1089
1681
2209
3025
4489
4225
1600
4
2500
7744
10201
6561
1444
0
361
784
1296
1681
2025
3249
4900
3844
1024
144
3481
8649
9216
4489
625
25
400
841
1296
1681
2209
3600
4900
3249
484
529
4489
9216
9025
3721
361
64
441
900
1369
1764
2401
3844
4624
2601
169
900
5329
9801
8281
2916
121
169
576
1024
1600
1936
2704
4225
4225
1681
0
2116
7056
9801
6889
1764
9
289
729
1296
1764
2209
3249
4624
3969
1296
36
2916
7921
10000
5776
1156
1
361
729
1369
1764
2209
3481
4900
3721
784
289
3844
8836
9216
4356
576
36
400
841
1444
1764
2304
3600
4761
3136
400
625
4761
9604
9025
3600
324
81
484
961
1521
1849
2500
3969
4624
2500
144
1089
5776
10000
8100
2601
81
196
576
1089
1600
1936
2916
4489
4225
1521
9
2601
7921
10000
6241
1225
1
361
729
1156
1600
2025
3249
4761
3844
1024
121
3364
8464
9216
4489
625
25
361
784
1296
1764
2209
3600
5041
3364
529
441
4356
9216
9025
3721
361
64
441
841
1369
1764
2500
3969
4624
2500
196
900
5329
10000
8464
2809
121
169
529
1089
1681
2116
3136
4489
4225
1600
1
2401
7569
10404
6724
1521
1
361
729
1296
1681
2025
3249
4761
4096
1156
81
3249
8281
9604
5041
841
9
361
729
1225
1681
2025
3364
4761
3600
841
225
3844
8649
9409
4356
484
49
484
961
1369
1764
2209
3600
4761
3025
361
676
4761
9604
9025
3721
289
81
529
1089
1681
2025
2601
3969
4489
2401
144
1089
5776
9801
8100
2601
100
144
529
1089
1764
2116
2916
4356
4096
1521
4
2401
7569
10000
6400
1369
0
361
676
1156
1600
2025
3249
4761
3844
1089
100
3136
7921
9025
4624
676
4
324
841
1369
1681
2025
3364
4624
3249
576
400
4225
9025
9025
3844
400
64
441
841
1296
1764
2304
3844
4761
2809
256
729
5184
10000
9025
3364
196
144
625
1156
1849
2209
2916
4225
4096
1681
1
1936
6724
9801
7225
2025
25
225
625
1089
1600
2025
3025
4761
4356
1600
9
2601
7744
9801
5929
1225
0
289
676
1156
1600
2025
3249
4761
3969
1089
121
3481
8649
9409
4761
729
16
400
900
1521
2025
2500
3844
4900
3136
441
576
4624
9604
9409
4096
441
64
529
1089
1681
2025
2601
3969
4624
2601
169
1024
5776
10201
8464
2916
144
144
529
1156
1681
2025
3025
4489
4225
1600
4
2601
7744
10404
6561
1369
0
361
784
1225
1681
2209
3481
4900
3844
1089
121
3481
8649
9409
4624
625
25
400
784
1369
1681
2116
3481
4761
3364
529
484
4356
9025
8649
3721
361
64
441
900
1521
1936
2401
3721
4624
2500
196
961
5476
10000
8464
2916
100
169
529
961
1521
1936
2809
4356
4489
1936
4
2025
7056
10201
7225
1764
4
289
676
1156
1600
2025
3025
4489
3969
1296
36
2809
7921
9604
5329
900
16
400
729
1156
1600
2025
3481
4900
3600
784
225
3844
8649
9216
4225
484
49
400
784
1296
1681
2209
3600
4624
3025
361
576
4624
9216
8649
3481
256
100
484
841
1369
1849
2500
3844
4356
2304
121
1024
5625
9801
7744
2304
49
196
529
900
1444
1764
2601
4096
4225
1764
1
2025
6889
9604
6561
1521
0
289
576
961
1521
1936
2916
4356
3969
1369
16
2500
7396
9409
5625
1024
9
441
784
1225
1600
1936
3249
4489
3481
841
196
3600
8464
9409
4761
676
25
400
841
1369
1849
2401
3844
4900
3364
484
576
4761
9409
9025
3721
324
64
441
900
1444
1764
2500
3969
5041
2916
256
841
5329
10000
8464
3025
144
144
529
1024
1444
1849
2704
4225
4225
1681
0
2116
7056
10000
6889
1600
0
441
841
1369
1681
2025
2916
4225
3481
1024
121
3136
8100
9216
4761
625
49
400
676
1024
1444
1936
3364
4624
3364
625
324
3844
8464
8464
3721
324
121
441
729
1225
1600
2304
3600
4489
2601
196
841
5041
9409
8100
2809
100
196
576
961
1369
1764
2500
3844
4225
1849
16
1521
6241
9801
7396
2025
16
256
625
1089
1600
1936
2916
4624
4096
1296
49
2809
7744
9604
5625
900
36
441
729
1089
1444
1936
3025
4356
3364
784
225
3481
8281
8836
4096
324
169
529
676
1024
1444
1849
3136
4096
2809
400
484
4225
8464
7921
2916
81
256
484
676
961
1296
1936
3136
3969
2209
121
841
4761
8464
7056
2025
1
324
441
576
961
1369
2025
3136
3721
1936
64
1089
4900
8464
6561
1521
16
484
484
529
841
1296
2025
3364
3364
1225
1
1764
5776
8281
5625
841
121
625
529
625
961
1444
2304
3481
3136
961
36
2209
6241
8100
4761
529
196
625
484
529
841
1369
2401
3721
3025
784
121
2916
7056
7921
3721
225
289
576
484
625
961
1444
2704
3844
2704
441
324
3600
7744
7744
3025
100
289
576
576
841
1156
1764
3025
4096
2500
256
676
4489
8464
7569
2401
25
361
484
576
900
1296
2025
3249
3969
2116
100
961
5041
9025
7225
2025
1
400
529
676
961
1369
2116
3481
3844
1849
36
1296
5625
9216
6889
1764
0
441
625
841
1156
1521
2304
3721
3969
1521
0
1764
6241
9216
6724
1764
9
256
676
1156
1681
2025
2916
4489
4096
1369
36
2916
7921
9604
5776
1156
0
324
900
1600
2116
2401
3481
4761
3481
729
256
3844
9216
9801
5041
784
9
400
900
1600
2025
2500
3721
4900
3481
576
400
4489
9604
9604
4356
576
36
400
961
1600
2025
2601
4096
5329
3136
324
841
5476
10404
9216
3481
289
100
529
1156
1764
2116
2916
4489
4624
2025
16
1849
6889
10404
7396
2025
49
169
625
1296
1936
2401
3481
4900
4096
1296
64
3136
8649
10000
5476
1024
0
324
784
1444
1849
2304
3600
4900
3600
729
324
4096
9025
9216
4225
484
36
441
961
1521
1849
2401
3721
4624
2809
324
676
4900
9409
8649
3136
169
121
441
900
1444
1936
2704
4096
4489
2025
25
1521
6400
10000
7744
2116
16
289
576
961
1521
1936
3025
4356
4096
1369
16
2401
7225
9216
5625
1156
4
361
625
1089
1521
1936
3025
4356
3481
900
121
3249
8100
8836
4624
625
25
400
729
1225
1521
1936
3249
4624
3364
625
324
3969
8464
8649
3844
324
81
484
841
1296
1600
2209
3600
4489
2704
225
841
5329
10201
9025
3249
196
144
576
1225
1936
2304
3136
4761
4624
1764
0
2304
7396
10609
7569
2116
25
256
784
1369
1849
2304
3481
5041
4096
1225
81
3249
8464
9801
5476
1024
1
361
784
1369
1681
2116
3481
5041
3844
841
256
3844
8649
9025
4489
625
16
400
961
1521
1936
2304
3721
4624
2809
289
729
4900
9604
8836
3481
256
100
529
1024
1681
1936
2704
4096
4489
2209
49
1444
6084
10000
8100
2601
100
196
729
1369
1849
2304
3364
4761
4096
1296
49
3136
8464
10201
5929
1156
0
324
841
1521
2025
2500
3721
5041
3721
729
256
3969
8836
9216
4489
625
16
361
841
1369
1849
2304
3721
4900
3025
400
625
4900
9604
9025
3600
289
100
529
1089
1764
2116
2704
3969
4624
2209
49
1444
6400
10404
7921
2500
100
169
625
1225
1764
2304
3249
4624
4096
1369
49
3025
8281
10000
5776
1089
4
400
841
1444
1936
2304
3600
5184
3721
784
256
4096
9025
9216
4356
625
25
400
900
1444
1764
2304
3721
4761
2916
324
676
5041
9801
9025
3481
256
81
529
1089
1849
2304
2809
4225
4624
2116
49
1369
5929
10000
8281
2704
121
169
676
1296
1849
2209
3136
4761
4225
1444
36
3025
8464
10404
6241
1369
0
324
900
1444
1849
2304
3600
5329
4096
961
196
3844
9025
9409
4624
676
9
324
784
1296
1764
2304
3600
4900
3364
576
441
4489
9216
9025
3969
400
64
484
1024
1600
1936
2500
3969
4624
2601
144
1024
5625
10201
8649
3025
144
144
625
1225
1849
2209
3136
4624
4356
1600
9
2601
7744
10404
6724
1681
9
289
784
1225
1681
2304
3600
5184
4356
1225
100
3364
8649
9604
5041
841
4
324
784
1369
1764
2209
3481
4900
3481
676
361
4225
9025
9025
3969
441
49
441
1024
1521
1936
2500
3844
4624
2601
169
961
5476
10000
8836
3249
196
144
625
1225
1849
2209
3025
4356
4356
1764
0
2209
7225
10404
7569
2116
36
256
784
1369
1849
2209
3481
5041
4356
1444
36
3025
8464
10000
5625
1089
0
289
784
1369
1849
2304
3721
5184
3721
729
361
4225
9025
9025
3969
441
49
400
900
1521
1936
2401
3721
4761
2809
289
784
5184
10000
8836
3364
225
121
625
1156
1681
2116
2809
4489
4624
2025
4
1936
7225
10609
7921
2209
49
256
729
1369
1849
2304
3481
5041
4225
1296
64
3136
8281
10000
5776
1156
0
324
841
1444
1849
2304
3600
5041
3721
784
289
3969
9216
9409
4356
484
36
441
841
1369
1764
2304
3844
5041
3249
361
676
5184
10201
9409
3600
256
144
625
1225
1764
2025
2809
4225
4489
1936
9
1764
6724
10404
8100
2500
64
256
784
1369
2025
2401
3481
4900
4096
1369
49
3136
8281
10201
6084
1225
0
324
784
1444
1936
2500
3721
5041
3721
841
256
3969
9025
9216
4489
625
25
361
900
1444
1849
2401
3721
4761
3025
441
576
4900
9801
9216
3844
324
100
576
1089
1600
2116
2916
4356
4761
2304
49
1444
6241
10609
8464
2704
100
196
729
1369
1936
2304
3364
4761
4356
1369
36
2916
8281
10201
6241
1369
0
324
841
1444
1849
2209
3600
5041
3844
900
225
3844
8649
9216
4624
625
25
361
784
1369
1764
2304
3721
4900
3136
361
625
4900
9604
8836
3481
289
121
529
1156
1681
2116
2916
4356
4624
2025
25
1600
6561
10404
8281
2704
81
196
729
1369
1936
2401
3481
5041
4489
1444
36
3025
8464
10609
6400
1369
1
324
784
1369
1936
2401
3721
5329
4096
961
169
3721
9025
9604
4761
729
9
361
784
1369
1764
2209
3600
5041
3481
576
441
4489
9604
9216
3969
400
64
484
1024
1521
2025
2601
3969
4761
2500
144
1024
5929
10609
9025
3025
144
196
729
1369
1936
2304
3249
4624
4356
1521
16
2809
8464
10816
6889
1521
1
289
784
1369
1849
2304
3844
5929
4624
1225
144
3969
9409
10201
4900
729
9
324
784
1369
1849
2401
3844
5184
3364
441
576
4761
9801
9216
3721
324
100
576
1089
1600
2025
2809
4225
4761
2304
64
1369
6241
10609
8464
2704
100
196
729
1444
1936
2401
3364
4900
4225
1369
49
3249
8649
10609
6241
1369
0
324
900
1521
1849
2304
3721
5184
4225
961
169
3844
9216
10201
4900
676
16
361
841
1444
1936
2304
3844
5041
3249
484
529
4761
9801
9604
3969
324
100
576
1156
1764
2116
2916
4356
4761
2116
25
1600
6561
10816
8464
2704
100
196
784
1444
2116
2500
3600
5041
4225
1369
64
3364
9025
10816
6561
1369
0
361
900
1600
2025
2500
3969
5476
4096
841
289
4096
9216
9604
4624
625
16
361
784
1444
1849
2401
3969
5329
3481
484
576
5041
10201
9409
3721
289
81
529
1156
1681
2025
2916
4489
4761
2116
25
1681
6889
11025
8464
2601
81
196
729
1521
2116
2601
3481
5041
4356
1444
49
3249
8836
11025
6561
1444
1
289
841
1521
2116
2601
3969
5476
4225
1024
225
3969
9604
10000
4900
729
9
361
841
1444
1936
2500
3969
5184
3249
400
676
5184
10201
9216
3600
256
100
529
1089
1764
2116
2916
4489
4489
1936
4
1936
7056
10816
8100
2209
36
289
900
1521
2025
2304
3364
4900
4356
1369
49
3364
9025
11025
6241
1225
1
400
900
1521
1936
2401
3844
5625
4096
900
256
4225
9604
10404
4900
676
25
441
961
1521
1936
2401
3969
5184
3249
361
729
5184
10201
9409
3721
289
100
576
1156
1849
2401
3025
4489
4489
1849
1
2025
7396
10816
8100
2401
64
256
784
1521
2025
2500
3721
5329
4489
1444
49
3364
9025
10816
6241
1369
0
324
961
1600
2025
2601
4096
5625
4096
900
289
4225
9604
10000
4761
676
9
361
841
1444
1936
2401
3844
5184
3364
441
625
5184
10201
9604
3721
289
100
676
1296
1849
2116
2809
4356
4761
2209
25
1681
6889
11025
8464
2500
64
196
784
1444
2025
2401
3481
5041
4225
1369
64
3249
9025
10609
6084
1225
0
324
841
1444
1936
2500
3969
5476
4096
841
289
4096
9409
9801
4761
676
9
361
900
1521
1936
2601
4096
5184
3364
441
576
4900
10000
9409
3721
324
81
484
1024
1600
2116
2704
4356
4761
2304
64
1296
6084
10609
8836
3025
144
169
729
1444
2025
2401
3364
4900
4489
1521
25
3025
8649
10816
6724
1521
4
256
784
1369
1936
2500
3969
5476
4356
1089
169
3969
9409
10000
4900
729
9
361
841
1444
1849
2401
3844
5184
3481
529
529
4761
9801
9216
3844
324
81
484
961
1521
1936
2500
3844
4624
2704
196
900
5625
10609
9216
3249
196
144
676
1369
1936
2304
3249
4900
4489
1600
9
2809
8281
11025
7396
1849
16
289
784
1444
2025
2704
4225
5776
4489
1156
144
3844
9604
10201
5041
784
4
324
784
1444
1849
2401
3969
5329
3481
576
441
4489
9604
9409
3969
441
49
441
1024
1521
1936
2601
4096
4900
2500
121
1156
5776
10201
8649
2809
121
144
676
1296
1764
2304
3364
4900
4225
1444
49
3249
9025
10816
6561
1369
0
361
961
1521
1936
2500
3969
5476
4225
1024
225
4096
9409
10000
4900
729
9
361
784
1444
1849
2500
4096
5329
3481
441
625
5184
10201
9409
3600
289
100
529
1156
1764
2209
3025
4624
4761
2116
9
2025
7396
11236
8281
2401
49
289
784
1444
2025
2401
3600
5329
4624
1521
36
3249
9025
11236
6724
1444
0
324
900
1600
2025
2601
4096
5625
4225
961
225
4225
9801
10201
5041
729
9
361
900
1521
1936
2601
4096
5329
3481
441
625
5184
10404
9801
3844
289
81
529
1024
1600
2025
2809
4356
4900
2304
64
1369
6241
10609
8836
2916
121
225
784
1444
2025
2500
3364
4900
4489
1444
36
3136
8649
11025
6724
1444
1
289
841
1444
2116
2601
3969
5625
4225
1024
225
4096
9604
10201
4900
729
9
400
900
1521
1936
2601
4225
5329
3364
400
676
5184
10201
9409
3600
289
100
484
1024
1600
2025
2809
4225
4624
2116
25
1600
6400
10609
8281
2500
81
225
841
1444
2116
2401
3481
5041
4225
1296
64
3364
9025
11025
6400
1296
0
400
961
1600
2025
2601
3969
5625
4225
961
225
3969
9409
10000
4761
676
9
324
841
1369
1764
2401
3844
5041
3249
441
625
5041
10000
9216
3600
289
100
529
1089
1681
2116
2809
4489
4761
2209
25
1764
6889
10816
8100
2401
49
256
784
1444
1936
2304
3481
5041
4225
1296
64
3481
9025
10816
6241
1225
0
324
900
1521
1936
2500
3969
5625
4225
961
225
4096
9604
10000
4761
676
9
361
784
1444
1936
2500
3969
5041
3249
400
625
5041
9801
9216
3721
324
100
484
1024
1600
2116
2916
4489
4761
2209
36
1600
6561
10609
8281
2601
81
196
729
1369
1936
2304
3364
4900
4356
1521
36
3136
8836
10609
6400
1296
1
324
841
1444
1936
2401
3969
5625
4225
961
196
3844
9025
9801
4900
729
9
361
841
1369
1849
2209
3721
5041
3364
484
529
4624
9604
9216
3844
361
64
484
1024
1600
2025
2704
4096
4761
2401
121
1089
5776
10404
8836
2916
144
196
729
1369
1936
2304
3364
4761
4225
1444
36
2916
8464
10816
6724
1521
4
289
841
1444
2025
2500
3969
5476
4225
1089
169
3969
9409
10000
4761
625
16
361
841
1444
1849
2500
4096
5184
3136
361
676
5041
10000
9025
3481
256
121
529
1089
1681
2025
2704
4096
4356
1849
4
1849
6724
10201
7569
2116
49
256
784
1369
1936
2304
3481
5041
4225
1369
49
3136
8649
10404
6084
1225
0
289
841
1521
2025
2401
3721
5184
3844
841
225
3844
9025
9409
4761
729
4
289
784
1369
1764
2304
3844
5184
3481
529
484
4489
9604
9216
3969
441
49
484
1024
1600
1936
2704
4096
4761
2500
121
1089
5625
10201
8464
2809
144
121
625
1225
1849
2209
3249
4624
4225
1444
36
3025
8464
10609
6241
1296
0
289
784
1444
1936
2401
3844
5476
4225
1024
196
3969
9409
9604
4489
625
16
361
784
1296
1764
2401
3969
5184
3249
400
625
5041
9801
9025
3481
256
121
576
1089
1681
2025
2809
4096
4489
2116
36
1444
6400
10404
8281
2704
100
196
784
1444
2025
2500
3600
5329
4489
1369
81
3481
9409
11025
6400
1369
1
361
900
1600
2209
2704
4225
5625
4096
900
256
4096
9216
10000
5041
729
9
361
841
1369
1849
2304
3969
5329
3481
529
529
4761
9801
9604
3969
361
100
625
1156
1681
1936
2500
4096
4624
2304
64
1369
6241
10404
8464
2704
121
196
729
1369
1936
2304
3249
4900
4356
1369
36
3136
8836
10609
6561
1369
0
324
900
1444
2025
2401
3844
5329
4096
961
196
3844
9025
9604
4761
729
9
324
729
1369
1764
2304
3721
5184
3481
529
484
4624
9801
9216
3969
400
64
441
1024
1521
1936
2601
3969
4761
2601
169
1024
5929
10609
9025
2916
121
196
676
1225
1764
2116
3136
4761
4489
1681
9
2704
8100
10816
6889
1681
9
289
784
1369
2025
2500
3721
5329
4356
1156
121
3721
9216
10201
5329
841
9
361
841
1444
1936
2500
3969
5329
3600
576
529
5041
10201
9604
3844
256
196
784
1225
1600
1764
2401
3969
4489
2209
49
1444
6400
11025
8836
2809
81
289
900
1521
1849
2116
3136
4624
4356
1521
16
2809
8464
10816
6724
1521
1
324
841
1444
2025
2500
3969
5625
4356
1024
196
3969
9409
10201
4900
729
4
324
841
1444
1936
2500
4096
5476
3600
576
529
4900
10201
9801
3969
361
64
441
1024
1521
2025
2916
4489
4900
2401
81
1296
6400
11025
8649
2809
121
169
676
1369
1936
2304
3364
4900
4624
1600
16
3025
8649
11025
6724
1444
1
289
841
1444
1936
2601
4096
5776
4356
1024
196
4096
9604
10201
4900
729
9
361
900
1521
1849
2500
3969
5329
3481
484
576
4900
10000
9409
3844
324
81
484
961
1600
1936
2704
4096
4761
2500
100
1296
6561
11025
8649
2704
81
256
784
1296
1849
2209
3249
4900
4356
1369
36
3136
8649
10609
6400
1296
0
361
784
1444
1849
2401
3969
5625
4356
1024
196
3969
9409
10000
4900
729
9
361
841
1444
1936
2401
3969
5041
3249
400
625
5041
10201
9409
3481
256
100
576
1089
1681
2025
2809
4356
4489
1936
16
1681
6561
10201
7744
2304
49
196
676
1296
1849
2304
3364
4900
4225
1225
81
3364
8836
10609
5929
1024
1
361
784
1369
1849
2500
3969
5625
4356
961
289
4225
9604
9801
4624
529
25
400
729
1225
1681
2304
3721
5041
3136
361
676
5041
9801
8649
3136
144
169
484
841
1296
1681
2401
4096
4624
2304
64
1296
5776
9604
7921
2500
49
225
576
1089
1521
2025
3025
4624
4225
1444
16
2809
7921
10201
6084
1089
16
361
625
1024
1600
2209
3600
5184
3969
1024
169
3844
9025
9216
4096
361
64
324
576
961
1369
2025
3481
4761
3249
529
441
4356
9025
8649
3249
144
196
484
729
1156
1600
2304
3721
4356
2209
81
1156
5625
9801
7744
2209
9
289
576
900
1369
1849
2704
4225
4356
1764
0
2025
6724
9801
7056
1600
0
324
576
841
1369
1849
2916
4624
4489
1521
16
2601
7921
9801
5929
961
36
400
625
961
1369
1764
3025
4489
3844
1089
121
3364
8649
9409
4624
484
100
529
729
1024
1444
2025
3600
5184
3721
576
576
4900
9801
9025
3600
169
225
529
729
1089
1521
2209
3600
4624
2704
256
841
5329
10201
8836
2809
49
225
484
841
1296
1764
2704
4096
4225
1936
25
1600
6400
9801
7056
1681
0
324
484
784
1225
1681
2916
4761
4489
1521
36
2809
7744
9801
5776
900
49
484
676
961
1369
1764
2916
4225
3481
961
121
3364
8281
9216
4489
441
144
529
729
1024
1444
1936
3249
4761
3364
529
484
4624
9409
9025
3600
196
144
484
729
1156
1764
2401
3844
4761
2601
169
900
5329
9801
8649
2601
36
289
576
784
1225
1764
2500
3969
4225
1849
9
1600
6084
9409
7056
1849
1
324
529
784
1296
1936
2916
4225
3969
1444
9
2304
6889
9216
5929
1089
25
441
676
961
1296
1681
2916
4356
3481
1024
121
3364
8281
9216
4624
484
144
625
784
961
1296
1849
3249
4761
3364
576
441
4225
9025
8836
3600
225
144
484
729
1089
1600
2304
3721
4624
2704
256
784
5184
9604
8281
2601
36
289
484
625
1024
1521
2500
4356
4761
2025
16
1600
6241
9801
7396
1764
0
361
576
841
1296
1681
2601
4096
4096
1521
9
2401
7225
9409
5929
900
49
441
529
784
1296
1764
2809
4225
3721
1225
36
2916
7921
9604
5184
625
121
529
625
900
1296
1849
3025
4624
3600
784
289
3844
8649
8836
3969
256
196
441
529
841
1296
1936
3481
4900
3364
441
576
4624
9025
8281
2916
81
256
529
676
1024
1444
2116
3600
4225
2209
121
1089
5329
9409
7744
2116
0
400
484
676
1024
1521
2500
3969
3969
1681
4
1681
6084
9409
6724
1444
25
484
576
676
1024
1521
2601
4225
4096
1444
9
2401
7056
9216
5625
841
81
529
484
676
1089
1681
2809
4096
3600
961
81
2809
7396
8836
4761
529
169
625
625
784
1225
1681
2916
4096
3025
625
289
3721
8281
8649
3721
225
256
625
676
1024
1444
2025
3481
4624
2704
256
784
4900
9216
8100
2601
36
324
529
625
900
1444
2209
3600
4356
2304
121
961
5041
9216
7921
2304
4
324
441
529
900
1444
2401
3969
4356
2025
25
1444
5625
9025
6724
1681
4
441
484
576
961
1369
2209
3721
3969
1681
4
1600
6084
9216
6561
1296
25
484
576
729
1089
1681
2809
4225
3721
1225
49
2704
7569
9409
5329
729
121
576
625
841
1225
1764
3136
4489
3481
784
225
3721
8649
9025
3844
225
169
441
529
900
1369
1936
3364
4489
3025
441
529
4356
8836
8100
2916
81
256
441
529
841
1369
2025
3481
4356
2500
169
841
4900
9409
7921
2304
9
361
484
625
1024
1521
2304
3844
4096
2025
49
1225
5625
9409
7225
1764
1
400
484
625
961
1444
2401
3969
4096
1681
1
1764
6241
9216
6561
1296
25
441
529
625
1089
1600
2704
4225
3969
1296
25
2601
7225
9025
5041
576
144
625
529
729
1089
1600
2809
4225
3364
729
256
3600
8100
8649
3721
225
225
529
576
841
1225
1764
3249
4489
2916
400
484
4225
8649
8281
2916
49
289
484
484
841
1296
2025
3364
4356
2500
196
784
4761
8836
7744
2401
16
324
484
576
900
1369
2209
3721
4356
2116
81
1156
5476
9409
7396
1849
0
361
441
576
961
1521
2401
4096
4225
1764
4
1681
6084
9025
6561
1369
16
529
576
676
1024
1444
2500
4096
3721
1296
25
2500
7056
9216
5329
729
121
576
576
784
1156
1681
3025
4356
3364
841
169
3364
7921
8836
4096
324
169
484
576
784
1156
1764
3136
4761
3364
529
441
4225
8836
8281
3249
121
256
529
676
961
1369
1936
3364
4356
2500
196
841
5041
9216
7744
2209
1
400
484
529
900
1296
2116
3481
4225
2116
81
1089
5329
9216
7396
1936
0
400
441
576
961
1444
2401
3844
4096
1764
16
1521
5929
9216
6889
1521
9
484
529
729
1156
1600
2500
3844
3721
1369
9
2304
6889
9025
5776
900
81
529
529
676
1024
1600
2704
4225
3721
1156
64
2916
7396
9025
4761
484
169
576
576
729
1156
1681
3025
4356
3364
676
256
3969
8649
8649
3721
225
196
484
625
961
1369
2025
3481
4624
2916
324
676
4761
9025
8100
2809
49
289
441
576
1024
1600
2304
3721
4356
2304
100
1024
5329
9409
7569
2025
0
400
484
576
900
1444
2304
3969
4356
1936
16
1521
6084
9409
6889
1521
9
441
484
676
1024
1521
2500
3969
3969
1444
9
2209
6724
9025
5776
900
81
484
576
729
1089
1600
2704
4225
3721
1089
81
2916
7744
9216
4900
529
169
576
676
900
1225
1764
3136
4489
3249
676
361
4096
8649
8649
3600
196
225
529
625
900
1296
1936
3481
4761
3136
361
676
4761
9409
8464
2916
49
289
529
625
961
1369
2209
3600
4489
2401
121
1024
5476
9409
7744
2116
0
400
576
625
961
1444
2304
3721
4225
1849
16
1444
5929
9409
7056
1600
9
400
484
625
1024
1521
2500
4096
3969
1521
1
2209
6724
9216
5929
961
81
529
576
729
1089
1600
2704
4096
3600
1156
64
2809
7744
9409
5041
529
196
625
625
841
1225
1764
3136
4624
3364
676
289
3969
8836
8836
3721
196
225
529
625
1024
1521
2116
3481
4356
2601
256
729
4900
9409
8100
2601
36
289
484
576
961
1521
2304
3844
4356
2304
100
1156
5476
9801
7569
1936
1
400
529
625
1024
1521
2401
3969
4096
1600
0
1936
6561
9216
6400
1225
25
484
576
676
1089
1600
2704
4356
3844
1225
49
2809
7569
9409
5041
576
144
625
625
784
1156
1681
2916
4356
3249
729
225
3600
8281
8836
3844
256
196
529
625
961
1369
1936
3481
4761
3025
400
625
4761
9025
8464
3025
81
256
484
676
961
1521
2116
3600
4489
2500
169
900
5184
9604
8100
2500
16
324
529
729
1089
1600
2500
3969
4356
2025
25
1600
6241
10000
7056
1521
9
441
484
676
1089
1600
2601
4225
3969
1369
16
2500
7225
9409
5476
784
100
529
576
784
1156
1681
2916
4489
3600
961
169
3481
8281
9025
4096
324
169
484
529
900
1296
1849
3249
4624
3249
484
484
4489
8836
8281
3025
100
256
484
625
1024
1521
2209
3481
4225
2304
144
900
5184
9604
7921
2209
4
361
529
625
1089
1600
2401
3969
4225
1849
16
1444
5929
9409
7056
1681
1
400
529
625
1089
1600
2704
4225
3969
1521
4
2304
7056
9409
5929
1024
64
529
625
784
1156
1521
2704
4096
3721
1089
81
2916
7744
9025
4761
441
169
576
625
841
1225
1681
3025
4489
3249
676
324
4096
8649
8649
3600
169
225
484
576
841
1296
1936
3481
4624
2916
324
676
4900
9216
8281
2704
49
289
529
676
1024
1521
2304
3721
4356
2209
81
1089
5625
9604
7744
2025
0
400
484
625
1024
1600
2500
3969
4096
1764
4
1764
6241
9409
6889
1521
9
441
484
729
1156
1681
2704
4225
4096
1444
9
2401
7056
9409
5776
900
81
576
625
784
1156
1600
2601
4096
3600
1089
81
3025
7744
9216
4761
484
144
576
625
900
1225
1764
3249
4489
3249
625
361
3969
8649
8649
3600
196
196
484
625
961
1369
2025
3481
4624
2916
324
625
4761
9216
8281
2809
49
289
484
625
961
1444
2209
3600
4356
2401
121
1024
5329
9604
7921
2116
0
400
529
625
961
1444
2401
3969
4225
1936
25
1521
6084
9604
7056
1600
4
400
484
676
1089
1600
2601
4096
3969
1444
4
2209
6724
9216
5929
1024
49
529
576
729
1225
1681
2809
4225
3721
1156
81
3136
7921
9216
4900
529
144
529
625
900
1369
1849
3249
4624
3364
625
361
4096
8836
8836
3721
225
196
484
625
961
1444
2116
3481
4624
2916
324
729
4761
9409
8464
2809
49
256
484
676
1024
1521
2209
3721
4489
2304
81
1089
5476
9409
7744
2116
4
361
484
625
1024
1521
2500
3969
4356
1764
9
1681
6241
9409
6724
1369
16
484
529
729
1089
1681
2704
4225
3844
1369
25
2601
7225
9216
5184
676
121
529
576
784
1156
1600
2809
4225
3481
841
169
3364
8100
8836
3969
289
169
529
625
961
1369
1936
3249
4489
3136
441
484
4489
9025
8464
3249
100
256
484
625
1024
1444
2209
3600
4489
2500
169
961
5329
9604
7921
2304
9
361
484
625
1024
1521
2401
3969
4356
2025
36
1444
5776
9604
7396
1764
0
400
529
676
1156
1521
2500
3969
3969
1600
0
1936
6400
9409
6400
1225
36
484
529
784
1156
1681
2809
4356
3844
1225
49
2809
7569
9409
5329
625
144
625
625
841
1156
1600
2916
4489
3364
729
256
3844
8464
8836
3844
289
144
529
729
1089
1444
2025
3249
4489
2916
324
676
4761
9025
8100
2809
49
256
484
676
1024
1444
2209
3721
4356
2209
100
1156
5476
9604
7744
1936
0
400
529
676
1024
1521
2500
3969
4096
1600
0
1936
6561
9216
6561
1296
25
529
625
784
1156
1681
2601
4096
3844
1225
49
2809
7569
9409
5184
625
144
576
676
900
1296
1764
2916
4225
3364
784
196
3600
8464
8836
3969
256
196
529
625
961
1369
1936
3364
4624
3025
400
576
4624
9216
8464
2916
64
289
484
625
961
1444
2116
3600
4624
2500
169
961
5329
9604
8100
2401
9
361
484
625
1024
1521
2401
3969
4356
2025
36
1444
5929
9604
7225
1681
4
441
484
676
1024
1444
2500
4096
4096
1600
0
2025
6561
9216
5929
1089
49
484
529
729
1089
1600
2601
4096
3721
1156
49
2916
7569
9216
4900
484
144
576
625
841
1225
1681
2916
4356
3249
676
256
3721
8464
8836
3844
225
225
529
676
961
1369
1936
3481
4624
2916
289
676
4900
9025
8100
2809
49
324
484
576
961
1369
2116
3600
4489
2401
144
961
5329
9604
7921
2209
0
400
484
625
1089
1521
2304
3721
4096
1936
25
1369
5776
9409
7225
1681
4
441
484
676
1089
1521
2500
4096
3969
1600
0
2025
6561
9216
6084
1024
64
576
576
729
1024
1521
2500
4096
3600
1156
64
3025
7569
9025
4761
529
169
576
625
784
1156
1600
2916
4489
3364
676
289
3844
8464
8649
3721
196
225
529
625
961
1369
1936
3364
4489
2916
324
729
4900
9409
8281
2704
25
324
529
625
961
1444
2116
3481
4356
2401
144
961
5329
9409
7744
2116
4
361
484
576
961
1444
2304
3721
4225
2025
49
1225
5476
9216
7225
1849
1
400
529
676
1024
1444
2304
3844
3969
1521
0
1849
6241
9025
6084
1089
64
529
576
676
1024
1521
2500
4096
3721
1156
64
2916
7569
9025
4900
529
169
625
625
729
1089
1681
2916
4225
3364
729
256
3721
8464
8836
3844
196
256
576
676
961
1296
1849
3364
4624
2916
361
625
4761
9025
8100
2916
64
256
441
625
1024
1521
2209
3600
4489
2500
144
1024
5329
9604
7921
2209
1
361
484
625
1024
1600
2401
3969
4225
1849
9
1521
5929
9604
7056
1600
9
441
529
625
961
1444
2401
3969
4096
1764
4
1764
6241
9409
6400
1225
49
576
576
676
1089
1444
2500
3969
3721
1156
49
2809
7396
8836
4900
576
144
576
625
841
1156
1600
2916
4356
3249
729
256
3600
8281
8649
3721
256
196
484
576
961
1369
1936
3249
4356
2916
400
576
4489
8836
7921
2704
36
256
361
484
900
1444
2116
3600
4489
2401
169
961
5329
9216
7744
2209
4
400
484
576
961
1444
2209
3600
4225
2025
49
1225
5476
9409
7225
1764
1
400
484
625
961
1444
2304
3721
3969
1681
4
1600
5929
9025
6561
1369
25
529
576
676
1089
1521
2500
3844
3600
1225
25
2500
7056
8836
5184
676
100
529
576
784
1156
1600
2809
4096
3249
784
196
3364
8100
8836
3969
289
196
529
576
841
1296
1849
3136
4489
3249
484
484
4624
9025
8281
3025
81
289
484
576
900
1296
2025
3481
4489
2601
225
841
4900
9216
7921
2500
16
361
484
625
961
1369
2116
3600
4356
2209
81
1156
5476
9409
7396
1936
4
441
529
576
900
1369
2304
3969
4096
1849
16
1444
5929
9409
6889
1521
16
484
529
676
1089
1600
2500
4096
3844
1296
16
2401
7225
9216
5476
729
100
529
576
784
1156
1600
2809
4356
3481
841
169
3364
7921
8649
4096
289
169
484
576
900
1369
1849
3249
4624
3136
484
529
4489
9025
8281
3025
100
256
441
576
900
1369
2209
3600
4624
2601
196
900
5184
9409
8100
2500
9
324
484
625
1024
1521
2304
3844
4225
2116
64
1225
5625
9409
7225
1681
4
400
529
676
1024
1521
2401
3844
4096
1600
0
2025
6400
9216
6241
1156
49
529
576
676
1089
1521
2601
4096
3844
1225
49
2809
7569
9216
5041
576
144
529
576
784
1156
1681
2809
4225
3364
729
225
3600
8464
8649
3721
196
225
529
625
961
1296
1936
3364
4489
2809
324
676
4489
8836
8100
2809
36
324
484
576
900
1296
2116
3481
4356
2304
121
1024
5329
9409
7744
2025
0
400
529
625
961
1444
2304
3721
3969
1849
16
1444
5776
9025
6889
1521
16
484
484
625
1024
1521
2401
3969
3844
1369
16
2304
6889
8836
5329
784
100
576
576
676
1024
1600
2704
4096
3481
900
144
3249
7921
8836
4225
324
225
625
676
900
1156
1681
3025
4356
3136
529
441
4356
8836
8281
3136
100
289
529
625
961
1369
1936
3364
4356
2601
196
900
5041
9409
8100
2401
9
361
529
625
961
1444
2116
3721
4356
2209
81
1089
5476
9409
7569
2025
0
441
529
625
1024
1444
2401
3969
4096
1681
1
1849
6400
9216
6561
1225
36
529
529
676
1024
1521
2500
4096
3844
1296
36
2601
7225
9216
5184
625
144
576
529
729
1156
1600
2916
4356
3364
784
196
3481
8100
8649
3844
256
225
529
625
900
1225
1764
3136
4624
3025
441
576
4489
8836
8281
3025
81
289
529
625
900
1369
2025
3481
4489
2500
169
900
5184
9604
7921
2304
9
400
484
576
961
1444
2209
3721
4356
2116
81
1225
5625
9409
7569
1936
1
441
484
625
1024
1521
2304
3844
4225
1764
9
1600
6084
9216
6724
1369
16
441
484
625
1024
1521
2601
4096
3844
1296
16
2500
7056
9025
5184
676
144
625
625
784
1089
1444
2704
4356
3481
841
169
3364
8100
8836
4096
289
196
529
576
841
1225
1764
3249
4489
3025
441
529
4489
8836
8281
3025
64
289
529
625
961
1369
1936
3364
4356
2601
225
900
5184
9409
8100
2401
4
400
529
576
900
1369
2116
3600
4356
2209
81
1089
5329
9216
7396
1936
0
400
484
576
961
1444
2304
3721
4225
1936
36
1369
5776
9409
7056
1600
9
441
529
576
961
1444
2304
3844
3969
1600
0
1849
6241
9025
6241
1156
49
529
529
676
1024
1600
2601
4096
3721
1156
49
2809
7396
9216
5184
576
169
625
625
784
1156
1681
2916
4356
3249
676
256
3721
8464
8836
3844
225
225
576
625
900
1225
1849
3249
4489
3025
400
576
4489
8836
8100
2809
49
289
484
576
961
1369
2025
3481
4356
2500
196
900
5184
9409
7921
2304
4
361
529
625
961
1369
2209
3600
4225
2025
49
1225
5476
9216
7056
1764
1
441
441
529
900
1369
2209
3721
4096
1764
16
1521
5776
9025
6724
1369
25
484
576
676
1024
1444
2500
3844
3721
1296
36
2601
7225
9025
5184
625
144
625
625
784
1089
1521
2809
4225
3364
784
196
3364
8100
8836
3969
256
225
576
625
900
1225
1764
3136
4489
3025
441
484
4489
8836
8281
3025
81
289
484
529
900
1296
1936
3481
4624
2704
256
841
5184
9604
8100
2304
1
441
576
676
1024
1369
2025
3481
4096
2025
64
1156
5476
9216
7396
1849
0
400
484
576
961
1444
2304
3844
4096
1764
9
1600
5929
9216
6561
1296
36
576
576
625
1024
1521
2401
3844
3600
1225
16
2209
6724
9025
5329
729
121
576
576
676
1089
1681
2916
4225
3364
784
196
3249
8100
8836
4225
324
196
576
625
900
1225
1681
3136
4356
3025
484
484
4225
8649
8464
3136
81
289
529
576
900
1296
1936
3364
4489
2601
256
784
4900
9216
7921
2401
9
361
484
576
900
1296
2025
3481
4225
2209
121
1024
5329
9216
7396
1849
0
400
529
625
1024
1521
2304
3721
3844
1600
1
1764
6084
9216
6561
1296
36
529
529
676
1024
1521
2500
4096
3844
1225
25
2500
6889
9025
5184
676
144
576
576
729
1089
1521
2809
4225
3249
784
196
3481
8100
8464
3721
225
256
576
529
841
1225
1764
3136
4489
2916
400
529
4356
8649
8100
2916
64
289
484
576
961
1369
1936
3249
4225
2500
225
784
4900
9025
7921
2500
16
361
484
576
961
1444
2116
3600
4225
2116
81
1156
5329
9409
7396
1764
4
441
529
576
900
1369
2209
3721
4096
1849
9
1521
5929
9216
6724
1369
25
484
484
625
961
1444
2304
3844
3844
1444
1
1936
6400
9025
5929
1024
64
576
576
676
1089
1521
2704
4096
3721
1089
81
2916
7569
9025
4761
484
196
625
625
784
1156
1600
2916
4489
3249
625
289
3844
8649
8649
3600
169
256
529
625
900
1296
1936
3364
4624
2809
289
625
4624
8836
7921
2704
25
289
441
529
841
1369
2025
3600
4356
2500
144
900
5184
9216
7569
2209
0
400
529
576
900
1369
2116
3600
4096
2025
64
1156
5476
9216
7225
1764
4
441
484
576
961
1369
2209
3600
3844
1681
9
1600
5929
9216
6561
1296
49
576
625
676
1024
1369
2401
3844
3844
1369
16
2401
6889
9025
5476
729
121
625
576
784
1089
1521
2704
4096
3249
784
169
3364
7921
8649
3969
289
225
529
576
784
1225
1849
3249
4489
3136
484
441
4225
8649
8281
3136
81
289
484
576
841
1225
1936
3481
4489
2601
225
784
5041
9216
7744
2401
9
361
484
576
900
1369
2025
3481
4225
2209
100
1024
5329
9216
7396
1849
1
441
484
576
900
1369
2209
3600
3969
1764
16
1444
5776
9025
6724
1444
25
484
484
625
961
1369
2401
3969
3969
1369
16
2209
6724
9025
5476
729
121
576
529
676
1024
1521
2704
4096
3364
841
144
3249
7921
8649
3969
289
225
576
625
841
1225
1764
3136
4356
3136
529
441
4356
8836
8281
3025
64
289
484
576
900
1296
1936
3364
4489
2601
225
729
4900
9216
7921
2500
16
400
529
576
900
1369
2116
3600
4225
2116
100
1089
5184
9025
7396
1764
4
400
441
576
961
1444
2304
3844
3969
1600
1
1681
6084
9025
6400
1296
25
529
529
625
1024
1444
2500
3969
3844
1296
25
2401
7056
8836
5041
625
144
576
529
729
1024
1521
2809
4225
3249
841
169
3364
7921
8649
3844
225
225
529
529
784
1156
1764
3136
4356
3025
400
576
4489
8649
7921
2809
36
324
484
484
784
1296
1936
3481
4356
2500
196
841
4900
9216
7921
2304
4
400
529
576
900
1369
2025
3481
4225
2209
100
1024
5329
9216
7396
1849
1
441
484
625
961
1369
2209
3721
3969
1764
4
1600
5929
9025
6561
1296
36
529
529
625
961
1369
2304
3844
3721
1369
4
2116
6400
8836
5776
900
100
625
576
676
1024
1521
2500
4096
3600
961
81
2809
7225
8836
4761
529
196
676
625
784
1089
1600
2916
4096
3136
676
289
3721
8464
8649
3721
196
256
576
676
900
1296
1849
3249
4489
2809
324
625
4624
8836
8100
2809
36
324
484
529
900
1296
2025
3481
4356
2500
169
900
5041
9216
7744
2116
0
400
441
484
841
1296
2116
3600
4225
2116
81
1156
5184
9025
7056
1764
4
441
484
576
900
1369
2209
3600
3844
1681
9
1521
5776
8836
6561
1369
36
529
529
625
961
1369
2209
3600
3721
1444
1
2025
6241
8836
5776
961
81
625
625
676
1024
1521
2401
3844
3481
1156
49
2704
7225
8836
4900
529
196
676
576
784
1089
1681
2916
4096
3249
625
256
3600
8281
8649
3721
196
225
529
576
841
1225
1849
3249
4489
3025
400
576
4624
8836
8100
2704
49
289
484
529
841
1296
2025
3481
4225
2401
169
841
4900
9025
7744
2209
0
400
484
529
900
1296
2209
3600
4096
1936
49
1225
5476
9216
7225
1764
9
484
484
625
961
1444
2304
3721
3844
1681
1
1600
6084
9216
6561
1296
49
576
576
625
1024
1521
2401
3969
3721
1296
16
2401
6889
9025
5476
676
144
625
576
729
1089
1600
2704
4096
3364
841
144
3249
7744
8649
4225
289
225
576
625
784
1156
1681
3025
4489
3136
576
400
4096
8464
8464
3249
100
289
484
576
900
1296
2025
3364
4225
2500
225
784
4900
9025
7744
2304
4
361
484
529
900
1369
2116
3600
4225
2116
81
1089
5184
9216
7225
1849
1
441
484
576
961
1444
2209
3481
3844
1764
16
1369
5625
9216
6889
1444
25
484
529
625
1024
1444
2500
4096
3844
1296
16
2500
7056
9025
5476
784
121
576
576
729
1089
1600
2704
4096
3364
900
121
3136
7744
8836
4096
324
225
529
529
784
1089
1681
3025
4489
3136
529
441
4096
8649
8100
3136
81
289
529
529
841
1225
1849
3249
4356
2704
256
729
4900
9025
7921
2401
9
361
484
576
900
1369
2116
3600
4225
2116
81
1089
5184
9216
7569
2025
1
484
576
625
961
1369
2209
3600
3969
1849
16
1369
5776
9216
6889
1521
16
484
529
625
961
1444
2304
3844
3844
1444
1
2025
6400
9025
5776
900
100
625
625
729
1024
1521
2500
3969
3481
1024
81
2916
7744
8836
4624
400
225
625
576
784
1156
1600
2916
4356
3136
625
289
3844
8464
8464
3481
121
289
576
576
900
1296
1849
3249
4356
2809
324
676
4761
8836
7921
2601
25
361
484
576
900
1296
2025
3481
4356
2401
169
900
5184
9216
7744
2116
1
400
529
576
900
1369
2209
3600
4096
2025
49
1225
5476
9216
7225
1681
9
484
484
576
961
1444
2304
3721
3844
1600
4
1521
5929
9025
6561
1369
36
529
529
676
1024
1521
2500
4096
3721
1225
36
2500
7225
9025
5329
625
169
625
576
729
1089
1600
2809
4225
3249
784
169
3364
7921
8649
3969
256
225
576
576
841
1156
1681
3136
4489
3136
441
484
4356
8649
8281
3025
64
324
529
576
841
1369
1936
3249
4225
2500
225
729
4900
9025
7921
2401
9
361
484
576
900
1296
2025
3481
4225
2304
121
961
5184
9216
7744
2025
0
400
484
529
900
1369
2209
3721
4096
2025
49
1156
5476
9025
7056
1681
9
484
529
625
900
1369
2209
3600
3721
1600
1
1681
6084
9025
6241
1156
64
576
529
625
961
1369
2401
3844
3721
1296
16
2401
6889
9025
5329
676
144
576
529
676
1024
1521
2704
4096
3364
841
169
3364
7921
8649
3969
256
256
576
576
784
1225
1764
3136
4489
3136
529
441
4225
8649
8100
3136
81
256
441
529
841
1156
1849
3249
4489
2704
289
676
4761
9025
7921
2401
9
400
529
529
841
1156
1936
3481
4356
2401
144
961
5041
9025
7396
2025
0
400
441
529
841
1369
2209
3600
4096
1849
36
1296
5625
9025
7056
1521
16
484
484
576
1024
1521
2401
3969
3844
1369
9
2116
6561
8836
5776
900
100
576
529
625
1024
1521
2601
3969
3481
1024
81
2916
7569
8649
4356
324
256
576
484
676
1024
1600
2916
4356
3249
625
324
3844
8281
8281
3364
169
289
529
576
841
1296
1849
3249
4356
2809
324
576
4489
8836
7921
2704
25
324
484
529
900
1296
2025
3364
4225
2304
144
900
5041
9025
7396
2116
0
400
441
529
841
1296
2116
3600
4225
2116
81
1156
5184
9216
7225
1764
4
484
529
576
900
1369
2209
3600
3721
1600
4
1521
5625
8836
6561
1369
36
529
484
625
961
1444
2304
3721
3600
1444
4
2025
6241
8836
5776
900
100
625
529
676
961
1444
2500
3844
3481
1089
49
2704
7225
8836
4900
529
225
676
576
729
1024
1600
2916
4356
3136
676
289
3721
8281
8464
3600
169
256
529
529
784
1225
1936
3249
4489
2916
361
625
4489
8649
7744
2601
36
289
441
529
900
1369
2025
3364
4225
2304
144
900
5184
9216
7569
2025
1
484
529
484
729
1225
2025
3600
4225
2025
49
1156
5329
9025
6889
1521
16
484
484
576
841
1369
2304
3844
3969
1521
0
1849
6241
9025
6084
1089
81
529
529
576
961
1444
2500
3969
3721
1225
36
2500
6889
8649
4900
625
144
576
529
729
1024
1444
2809
4225
3249
784
196
3481
7921
8464
3844
225
225
529
576
784
1156
1764
3136
4356
3025
441
484
4225
8464
8100
2809
64
324
484
529
729
1156
1849
3364
4489
2704
225
784
4761
9025
7569
2209
4
361
484
484
784
1296
2025
3481
4225
2116
100
1089
5184
9025
7225
1764
4
441
484
576
900
1296
2116
3600
3969
1764
16
1600
5929
9025
6561
1225
36
529
484
576
961
1444
2401
3844
3721
1225
16
2304
6889
8836
5041
625
144
576
529
676
1024
1600
2809
4096
3249
784
196
3364
7921
8464
3844
225
256
576
529
729
1089
1681
3136
4356
3025
484
484
4225
8464
7921
2916
64
324
484
484
729
1225
1936
3364
4356
2500
225
784
4624
8649
7569
2304
4
361
441
484
784
1296
2025
3481
4096
2116
81
1024
5184
9025
7056
1681
9
484
400
484
784
1296
2116
3600
3969
1849
36
1296
5476
8836
6724
1444
25
484
441
529
900
1369
2209
3600
3600
1369
1
1936
6084
8464
5625
841
121
625
529
576
961
1369
2401
3721
3481
1024
49
2500
6889
8464
4624
441
225
625
529
576
900
1444
2601
3969
3025
676
196
3364
7569
8100
3600
169
289
576
529
729
1089
1681
3025
4225
2916
400
529
4225
8281
7744
2704
25
400
484
441
729
1156
1849
3249
4225
2500
225
784
4761
8649
7396
2116
1
400
441
400
729
1156
1936
3364
4096
2304
144
841
4900
8649
7225
1849
4
484
441
361
676
1156
1936
3481
3969
2025
64
1156
5184
8836
6724
1369
36
529
441
529
900
1369
2209
3481
3600
1296
1
1936
6084
8464
5476
841
169
676
484
529
841
1369
2304
3721
3364
961
49
2401
6561
8464
4761
484
256
676
529
529
841
1296
2500
3721
3136
784
144
3136
7569
8281
3721
196
361
676
529
676
1024
1521
2916
4225
2809
441
441
3969
8281
7744
2704
36
400
484
441
729
1089
1681
3136
4225
2601
289
676
4624
8836
7744
2304
4
361
400
400
729
1225
1849
3249
4225
2401
169
841
4900
8649
7225
1849
1
441
400
441
729
1156
1936
3481
4096
2025
64
1089
5041
8649
6561
1444
25
484
400
441
784
1296
2116
3600
3721
1444
0
1764
5929
8649
5929
961
121
625
484
484
841
1296
2209
3721
3481
1225
25
2304
6724
8649
4900
484
256
676
484
529
900
1444
2601
3969
3136
784
169
3136
7396
8100
3721
196
324
576
484
576
1024
1600
2916
4225
2809
400
441
3844
7921
7569
2704
36
361
484
400
625
1024
1681
3136
4356
2601
225
729
4489
8464
7396
2116
0
484
441
400
676
1156
1849
3249
3969
2116
100
900
4761
8649
6889
1681
16
484
441
400
729
1156
2116
3600
3969
1764
16
1296
5329
8649
6400
1296
64
625
484
441
676
1156
2116
3600
3600
1296
4
1936
6241
8649
5476
729
196
729
484
484
841
1296
2304
3844
3481
1089
49
2601
6889
8464
4489
400
324
729
576
576
841
1296
2500
3844
3025
676
196
3249
7396
8100
3721
169
324
625
484
625
961
1521
2704
3969
2916
529
361
3969
8100
7921
3025
49
400
529
441
676
1089
1681
3025
3969
2500
256
625
4356
8281
7225
2304
1
441
441
400
625
1089
1849
3136
4096
2304
169
841
4624
8464
7056
1849
1
441
441
361
676
1156
1849
3249
3969
2025
81
961
4900
8464
6889
1600
25
529
484
441
676
1156
1936
3481
3844
1681
25
1296
5329
8649
6400
1156
64
576
484
484
784
1156
2116
3481
3481
1225
1
1849
6084
8649
5476
784
169
625
441
484
841
1369
2401
3721
3364
1024
49
2500
6724
8281
4489
361
256
676
484
529
900
1444
2601
3844
3025
676
169
3136
7569
8281
3721
196
289
529
441
625
1024
1600
2916
4225
2916
441
400
3969
8100
7569
2704
25
361
484
441
625
1024
1681
3136
3969
2401
225
676
4356
8281
7225
2209
0
441
400
400
625
1089
1849
3249
4225
2304
121
900
4761
8464
6889
1764
9
484
400
400
676
1156
2025
3364
3844
1849
36
1156
5041
8464
6561
1369
49
576
441
441
729
1225
2025
3481
3481
1444
0
1681
5776
8464
5776
900
144
625
484
484
784
1296
2304
3721
3364
1089
36
2500
6724
8464
4624
400
324
729
529
529
900
1369
2500
3969
3136
729
169
3249
7744
8281
3721
144
361
625
441
576
900
1521
2809
4096
2916
484
400
3844
8100
7744
2916
49
400
529
484
676
1024
1600
3025
4225
2601
225
676
4489
8464
7396
2209
1
441
441
400
625
1089
1849
3249
4096
2209
169
784
4624
8464
7056
1849
4
484
400
400
676
1156
2025
3249
3844
1936
81
961
4900
8649
7056
1764
16
529
441
441
676
1225
2025
3481
3844
1764
16
1369
5476
8464
6241
1156
100
625
484
484
841
1225
2116
3600
3364
1156
25
2209
6400
8281
4900
484
225
676
484
484
841
1296
2500
3969
3249
784
144
3025
7396
8281
3844
196
361
625
441
576
961
1600
2916
4096
2809
484
361
3844
8100
7744
2809
49
400
529
441
676
1089
1681
2916
4096
2601
289
625
4356
8464
7396
2401
9
441
484
441
676
1156
1849
3249
3969
2304
169
784
4624
8464
7225
1936
0
441
441
361
676
1156
1936
3364
4096
2025
81
961
4900
8464
6889
1681
16
484
400
441
729
1296
2209
3721
3969
1681
16
1444
5476
8649
6241
1225
64
576
484
484
841
1225
2116
3721
3600
1296
9
2116
6400
8649
5329
676
196
676
529
576
961
1444
2500
3844
3364
961
100
2809
7396
8649
4489
324
324
625
484
625
1024
1600
2809
4096
2916
529
324
3844
8100
8100
3249
81
361
529
441
676
1089
1681
3136
4356
2916
400
529
4225
8464
7744
2601
25
400
484
441
729
1156
1849
3364
4225
2401
169
841
4761
8836
7569
2116
0
484
484
441
729
1156
1936
3364
3969
2116
64
1024
5041
8836
7056
1681
9
484
441
484
784
1296
2116
3600
3969
1764
16
1369
5476
8836
6400
1225
49
529
441
529
900
1444
2304
3721
3481
1225
9
2209
6561
8836
5329
676
169
676
576
625
961
1444
2500
3969
3481
961
100
2809
7396
8649
4489
361
256
625
529
676
1024
1600
2916
4225
3025
576
361
3844
8100
8100
3249
100
289
576
576
841
1156
1764
3136
4356
2809
361
625
4624
9025
7921
2500
9
361
441
441
784
1225
2025
3364
4356
2401
121
961
5184
9025
7396
1936
1
441
484
529
784
1225
2025
3481
4096
1936
49
1225
5329
8836
6724
1521
25
529
484
529
841
1296
2116
3600
3844
1521
0
1849
6084
8649
5776
900
100
576
484
529
841
1369
2401
3844
3481
1156
25
2401
6561
8464
4900
576
196
625
484
576
961
1521
2601
3969
3136
841
144
3136
7744
8464
3844
196
289
576
529
676
1089
1600
3025
4356
2916
484
441
4096
8281
8100
3025
64
324
484
484
676
1089
1764
3249
4356
2704
289
676
4489
8649
7744
2401
4
400
484
441
729
1156
1936
3481
4225
2304
121
961
4900
8836
7225
1936
0
441
441
441
784
1296
2116
3481
3969
1936
36
1156
5184
8836
6889
1521
25
529
441
484
841
1296
2116
3600
3844
1521
1
1681
5929
8836
6084
1024
100
576
484
529
900
1369
2304
3844
3481
1156
36
2500
6889
8464
4624
441
225
676
529
625
900
1369
2601
3969
3136
729
169
3249
7569
8281
3721
196
289
576
529
676
1089
1600
3025
4356
2809
441
441
3969
8281
7921
2809
49
361
484
484
729
1225
1764
3249
4225
2500
225
784
4761
8649
7396
2116
1
400
441
441
729
1225
1936
3364
4225
2304
121
961
5041
8836
7396
1849
1
400
400
441
841
1296
2116
3600
4096
1849
49
1225
5184
8649
6724
1369
36
529
441
484
841
1296
2209
3600
3721
1444
1
1936
6241
8836
5776
900
121
676
529
576
900
1369
2304
3721
3364
1024
64
2704
7056
8464
4624
441
256
676
576
676
961
1521
2601
3844
3136
676
196
3364
7744
8281
3600
169
324
625
529
729
1089
1681
3025
4356
2916
441
529
4356
8649
7921
2809
25
400
484
484
729
1156
1936
3364
4225
2500
196
729
4761
8649
7569
2209
0
400
441
441
729
1225
2025
3481
4225
2209
100
961
4900
8836
7225
1849
9
484
441
441
729
1225
2025
3481
3844
1849
25
1156
5329
8836
6561
1444
36
529
484
484
784
1225
2116
3600
3600
1521
0
1764
5929
8649
5776
900
121
625
529
576
900
1369
2304
3721
3364
1156
36
2500
6889
8464
4761
441
256
676
529
625
900
1369
2500
3969
3136
729
196
3364
7744
8281
3721
169
361
676
484
676
1024
1600
2916
4356
3025
484
441
4096
8281
7921
2916
49
361
484
400
676
1156
1849
3249
4225
2500
225
729
4624
8649
7569
2209
1
441
484
441
729
1156
1936
3364
4225
2304
144
900
4900
8836
7225
1936
1
484
441
400
729
1156
2025
3481
3969
1936
64
1089
5184
8836
6724
1521
36
529
484
484
841
1225
2116
3600
3721
1521
1
1681
5929
8836
6241
1089
121
625
529
529
900
1369
2401
3844
3481
1089
49
2601
6889
8836
4900
484
225
676
529
576
961
1444
2601
3969
3136
784
169
3249
7569
8281
3721
196
289
625
529
676
1024
1600
3025
4356
2809
441
441
4096
8464
7744
2809
36
324
484
484
784
1225
1849
3249
4225
2500
225
784
4624
8836
7569
2209
4
400
484
441
729
1225
2025
3364
4096
2209
100
900
4900
8836
7225
1936
1
484
441
441
784
1225
2025
3481
3969
1849
36
1225
5329
8836
6561
1444
36
529
484
529
784
1296
2209
3600
3600
1444
0
1849
5929
8649
5776
961
121
625
484
529
900
1369
2401
3721
3481
1089
36
2500
6724
8464
4761
529
225
625
529
625
961
1444
2601
3969
3136
729
196
3249
7569
8281
3721
169
361
625
484
676
1024
1600
3025
4225
2809
441
441
4096
8464
7921
2809
36
400
484
484
729
1156
1849
3136
4096
2500
225
676
4624
8649
7569
2304
1
441
484
441
729
1225
1936
3481
4096
2209
121
900
4761
8649
7225
1936
1
484
441
400
729
1225
2025
3600
4096
1936
49
1156
5184
8649
6889
1521
16
529
484
484
841
1296
2116
3600
3721
1444
0
1764
5929
8649
5929
961
100
625
529
529
841
1296
2209
3721
3600
1225
16
2304
6724
8649
4900
529
225
676
529
625
900
1444
2500
3844
3136
784
144
3136
7569
8464
3969
196
324
625
484
625
961
1521
2809
4096
3025
576
324
3721
7921
7921
3136
64
324
529
484
625
1024
1681
3136
4356
2704
324
576
4356
8281
7569
2500
16
361
484
441
676
1156
1849
3364
4225
2304
144
841
4761
8836
7396
2025
0
441
400
441
729
1225
1936
3364
3969
2025
64
1024
5041
8649
6889
1600
16
529
441
484
784
1296
2116
3481
3844
1600
4
1521
5625
8836
6084
1089
81
625
484
484
841
1225
2209
3600
3600
1225
16
2209
6561
8649
4900
576
256
625
484
576
900
1369
2500
3844
3249
841
121
3025
7569
8464
4096
196
361
625
484
625
961
1521
2809
4096
3025
529
324
3721
7921
8100
3136
81
361
529
441
676
1089
1764
3025
4225
2601
324
529
4225
8281
7569
2401
9
441
484
400
625
1089
1764
3136
4225
2401
169
784
4761
8649
7396
2025
1
484
441
400
676
1156
1849
3364
3969
2025
81
961
4761
8464
6724
1764
9
484
441
400
625
1156
2025
3481
3969
1849
36
1225
5184
8464
6400
1369
49
529
400
441
729
1296
2209
3600
3721
1444
0
1764
5929
8464
5625
841
144
625
484
529
841
1369
2304
3721
3364
1156
36
2500
6889
8464
4761
400
289
676
484
529
841
1369
2704
3969
3136
729
196
3364
7744
8281
3600
169
361
625
441
625
1024
1681
3025
4356
2916
441
484
4096
8281
7744
2704
25
400
484
400
676
1089
1764
3249
4225
2601
225
676
4489
8649
7396
2209
0
441
441
400
676
1156
1849
3249
4096
2209
121
841
4761
8836
7225
1936
0
441
441
484
784
1225
2116
3481
4096
2025
64
1156
5184
8836
6889
1681
9
441
441
484
841
1296
2209
3600
3844
1600
4
1600
5776
9025
6400
1225
49
529
529
625
961
1444
2304
3844
3721
1296
9
2304
6889
9025
5625
729
144
625
625
729
1024
1600
2704
4096
3364
900
121
3136
7921
8836
4356
361
225
625
625
841
1156
1681
3025
4489
3136
576
361
4096
8649
8464
3364
144
289
484
576
900
1369
1936
3364
4489
2809
256
784
4900
9025
7921
2500
16
324
484
576
900
1369
2025
3600
4356
2209
81
1024
5329
9216
7396
1849
0
400
484
576
961
1369
2116
3600
4096
1849
16
1369
5625
9216
6889
1600
9
441
484
625
961
1444
2304
3844
3969
1600
0
1936
6241
9025
6084
1089
64
576
576
625
1024
1521
2601
4096
3721
1089
64
2809
7396
8836
4761
576
169
576
576
729
1156
1600
2809
4225
3249
729
225
3721
8281
8649
3721
225
256
529
576
900
1225
1849
3136
4489
2916
400
529
4356
8836
8281
3025
64
324
576
576
841
1369
2025
3481
4356
2401
144
900
5041
9216
7569
2116
0
441
484
529
841
1296
2116
3600
4225
2025
64
1156
5329
9025
7225
1764
1
441
484
576
961
1369
2209
3600
3969
1764
4
1600
5929
9025
6561
1369
36
529
576
625
1024
1521
2401
3844
3721
1296
16
2401
6724
9025
5625
729
144
576
576
729
1156
1600
2809
4096
3364
841
144
3249
7921
8836
4096
289
256
576
576
784
1156
1764
3025
4624
3136
529
441
4356
8649
8281
3025
81
289
484
529
841
1225
1936
3249
4356
2601
256
729
4624
8836
7744
2401
9
361
484
529
841
1296
2116
3481
4225
2209
100
1024
5184
9025
7396
1764
4
441
484
529
900
1296
2116
3600
3844
1764
25
1369
5625
9025
6724
1369
25
484
484
576
900
1296
2304
3844
3844
1369
9
2116
6561
8649
5329
784
144
625
529
625
961
1444
2500
3969
3481
1024
100
2916
7569
8649
4225
324
256
625
576
676
1024
1600
2809
4225
3025
529
361
3969
8281
8281
3249
100
324
576
576
841
1156
1849
3249
4356
2601
289
676
4624
8836
7921
2500
9
400
441
441
729
1156
1936
3481
4225
2304
121
900
4900
8836
7225
1936
1
441
484
529
841
1296
2025
3481
3969
1936
49
1225
5329
9025
6889
1521
25
529
484
529
900
1296
2209
3600
3721
1521
0
1849
6084
8836
5929
1024
81
576
529
576
900
1369
2401
3844
3600
1156
49
2500
6724
8649
4900
529
225
676
529
625
900
1444
2601
3969
3136
784
144
3136
7744
8464
3969
196
324
625
529
729
1089
1681
2916
4225
2916
441
484
4356
8649
7921
2809
36
361
529
529
784
1225
1764
3249
4225
2601
225
729
4624
8836
7744
2304
1
441
484
484
729
1156
1936
3481
4225
2209
100
961
4900
8836
7225
1764
4
441
484
484
729
1225
2025
3600
4225
1936
36
1296
5329
8836
6724
1444
36
529
484
529
841
1296
2209
3721
3721
1369
1
1936
6241
8836
5929
900
100
625
529
576
900
1369
2500
3844
3481
1089
49
2704
7225
8649
4624
441
225
625
529
625
1024
1521
2809
4225
3249
625
289
3721
8281
8281
3364
121
324
576
529
729
1156
1764
3136
4356
2704
361
529
4356
8464
7744
2601
36
361
441
484
729
1225
1936
3481
4225
2304
144
900
4900
8836
7396
2116
0
441
484
484
784
1296
2116
3481
4096
2025
64
1156
5184
9025
7056
1681
16
484
441
484
841
1369
2304
3721
3844
1521
0
1764
6084
8836
6084
1024
64
576
484
576
1024
1444
2500
3969
3600
1156
49
2601
7056
8649
4900
484
225
625
529
576
961
1521
2601
3969
3136
841
144
3249
7744
8281
3844
196
289
625
529
676
1024
1600
3025
4356
2916
441
441
4096
8464
8100
2916
49
324
529
484
729
1225
1936
3364
4356
2500
225
784
4761
9025
7744
2304
1
441
484
484
784
1296
2025
3481
4096
2116
100
1024
5041
9025
7396
1764
9
484
441
484
784
1296
2116
3600
3844
1681
9
1444
5625
8649
6400
1369
36
529
484
529
900
1369
2304
3844
3844
1444
1
1936
6241
8836
5776
900
100
625
529
576
900
1369
2500
3844
3481
1089
49
2704
7225
8836
4761
484
225
625
529
676
1024
1521
2809
4096
3136
676
256
3600
8100
8464
3600
169
324
576
576
784
1156
1764
3136
4489
2809
361
576
4356
8649
7744
2601
36
324
441
484
729
1225
1936
3481
4225
2304
169
841
4900
8836
7396
2116
0
400
484
484
784
1296
2025
3600
4096
2025
64
1089
5184
9025
7056
1681
9
484
441
484
841
1296
2116
3600
3969
1764
9
1444
5625
8649
6561
1296
36
529
529
576
900
1369
2304
3721
3721
1369
4
2025
6400
8649
5625
841
100
576
529
576
961
1444
2401
3844
3364
961
64
2601
6889
8649
4761
484
256
625
576
625
1024
1521
2809
4096
3136
676
256
3481
7921
8464
3600
169
289
529
484
729
1156
1764
3249
4489
2916
400
484
4225
8464
7921
2809
49
324
484
441
676
1089
1764
3249
4356
2500
225
784
4761
8836
7744
2209
1
441
441
484
729
1225
1936
3481
4225
2304
144
900
4900
8836
7396
1849
4
484
441
484
784
1225
2025
3481
3969
1849
25
1296
5476
8836
6724
1444
25
484
484
576
841
1369
2304
3721
3721
1444
1
1936
6241
8836
5929
961
100
625
529
625
900
1369
2401
3969
3600
1089
49
2704
7056
8649
4761
484
196
625
529
676
1024
1521
2704
4225
3136
676
256
3600
8100
8281
3600
169
324
576
529
729
1156
1764
3136
4356
2809
361
529
4225
8464
7921
2704
25
361
484
484
729
1225
1936
3364
4356
2500
169
841
4761
9025
7744
2209
1
400
441
484
841
1369
2116
3600
4225
2116
81
1089
5184
9025
7225
1764
1
441
441
529
900
1444
2209
3600
3969
1764
9
1521
5625
9025
6561
1444
25
484
484
576
961
1444
2401
3844
3844
1521
1
1936
6561
9025
5929
961
100
625
625
676
1024
1521
2601
4096
3481
1024
81
2916
7569
8836
4624
441
196
576
529
729
1089
1681
3025
4489
3249
576
361
3969
8464
8464
3364
144
324
529
529
784
1225
1849
3364
4489
2916
361
625
4624
9025
8100
2704
25
324
484
529
841
1296
2025
3481
4356
2401
144
961
5184
9216
7569
2116
1
400
484
625
1024
1444
2209
3721
4225
1936
36
1369
5776
9604
7056
1600
9
484
529
676
1024
1521
2401
3969
4096
1521
1
2116
6724
9409
6400
1156
36
529
625
784
1156
1681
2704
4096
3721
1156
64
2916
7569
9216
4900
529
144
625
625
784
1156
1600
3025
4489
3364
676
289
3844
8464
8649
3721
196
225
529
625
900
1296
1936
3364
4624
2916
361
576
4624
9025
8281
2916
49
289
484
529
841
1369
2116
3600
4356
2401
144
900
5041
9409
7921
2304
4
361
529
576
961
1369
2116
3721
4096
2116
64
1156
5329
9216
7225
1849
1
441
484
576
900
1369
2209
3721
3969
1764
4
1681
6084
9216
6561
1369
25
529
576
729
1089
1521
2500
4096
3844
1296
25
2500
7056
9216
5625
784
121
576
576
784
1089
1600
2809
4225
3481
900
121
3364
8100
8836
4225
324
196
576
625
841
1225
1849
3136
4356
3025
484
441
4096
8649
8100
3136
81
324
484
529
784
1225
1936
3481
4489
2601
256
784
4900
9025
7921
2401
16
361
484
576
900
1444
2209
3600
4225
2116
81
1089
5329
9216
7396
2025
0
400
441
529
900
1369
2304
3844
4096
1849
16
1444
5776
9025
6889
1521
16
484
529
676
1024
1521
2500
3844
3721
1296
25
2401
7056
9216
5625
784
121
625
576
784
1156
1600
2809
4225
3481
841
144
3249
7921
8649
4225
289
256
625
576
784
1156
1681
3136
4489
3136
484
484
4225
8649
8281
3249
81
324
529
529
784
1225
1936
3364
4489
2601
256
784
4761
8836
7921
2601
16
361
484
576
900
1296
2025
3600
4356
2304
100
961
5184
9216
7569
2116
1
400
484
625
1024
1444
2304
3844
4225
1936
25
1444
5929
9216
6724
1444
16
441
484
625
1024
1521
2500
4096
3844
1296
16
2500
7056
9025
5184
625
144
576
529
676
1089
1521
2809
4225
3364
784
169
3364
7921
8649
3844
225
256
576
529
729
1089
1681
3136
4489
3025
484
484
4356
8836
8100
2916
49
400
576
625
841
1296
1849
3249
4225
2401
196
900
5041
9216
7921
2401
9
400
529
576
900
1369
2116
3481
4096
2116
100
1024
5184
9216
7396
1849
0
400
441
529
1024
1600
2401
3844
3969
1681
1
1681
6084
9025
6400
1296
25
484
484
625
961
1444
2601
4096
3969
1369
16
2401
7056
9025
5476
729
144
576
529
676
961
1521
2601
4096
3364
900
144
3136
7744
8464
4096
324
225
576
576
729
1089
1600
3025
4356
2916
484
400
4096
8281
8100
3136
100
289
529
576
841
1225
1936
3481
4489
2704
225
729
4900
9025
7744
2304
9
361
484
529
841
1369
2116
3600
4356
2304
100
1024
5184
9216
7569
2025
0
400
441
529
900
1369
2209
3721
4096
1849
25
1369
5625
9025
6889
1600
9
441
529
625
961
1369
2304
3844
3969
1600
0
1849
6241
9025
6084
1156
64
576
576
625
1024
1444
2500
4096
3600
1156
49
2809
7396
8836
4761
529
196
625
576
676
1024
1764
3025
4489
3249
676
289
3844
8464
8649
3721
196
256
576
625
841
1225
1936
3364
4489
2809
324
625
4489
8836
7921
2704
25
324
484
529
841
1296
2025
3481
4356
2401
144
961
5184
9216
7744
2116
0
400
484
484
841
1369
2209
3721
4225
2025
64
1156
5476
9216
7396
1849
1
441
484
529
900
1369
2209
3721
4096
1681
9
1444
5776
8836
6724
1444
36
576
625
676
961
1369
2209
3721
3721
1369
4
2116
6561
9025
5776
961
100
576
576
729
1089
1600
2704
4096
3364
961
100
3025
7569
8836
4624
441
196
576
625
784
1156
1681
3136
4356
3249
576
324
3844
8464
8464
3600
196
225
484
625
900
1296
1936
3481
4624
2916
361
625
4761
9025
8281
2916
64
289
484
576
961
1444
2209
3721
4624
2500
144
1024
5329
9801
8100
2209
1
361
529
676
961
1444
2304
3844
4225
1849
9
1681
6084
9409
6889
1600
9
441
576
676
1024
1521
2601
4096
4096
1521
1
2116
6561
9216
6084
1089
49
529
576
729
1156
1681
2704
4225
3721
1089
81
2916
7569
9025
4900
484
169
576
576
784
1156
1681
3136
4489
3364
625
324
3969
8649
8649
3600
169
256
529
625
841
1296
1936
3481
4624
2916
324
625
4624
8836
8281
2704
49
289
441
529
900
1296
2116
3600
4356
2304
121
961
5184
9216
7569
2116
1
361
484
576
961
1444
2401
3844
4225
1936
36
1296
5625
9216
7225
1681
4
441
529
625
961
1444
2304
3844
4096
1600
0
1849
6241
9025
6241
1225
36
529
529
729
1089
1600
2601
4096
3721
1156
49
2809
7569
9216
5041
625
144
576
625
784
1156
1681
2916
4489
3364
784
256
3600
8281
8649
3721
225
225
529
576
841
1225
1849
3364
4624
3025
441
529
4489
8836
8281
2916
49
289
484
529
841
1369
2025
3481
4489
2601
196
841
5041
9409
8100
2401
9
361
484
576
900
1369
2116
3721
4356
2209
64
1089
5329
9216
7396
1936
0
400
484
625
1024
1521
2401
3844
4225
1764
4
1681
6084
9216
6724
1444
25
484
529
676
1024
1521
2500
3969
3844
1369
16
2401
7056
9216
5329
729
121
529
576
729
1089
1681
2916
4356
3481
900
169
3364
8100
8836
4096
289
225
576
576
784
1225
1764
3136
4624
3249
484
441
4225
8836
8281
3136
81
289
484
529
784
1296
1936
3481
4489
2601
256
784
4900
9025
7921
2601
16
400
576
625
900
1369
2116
3481
4225
2116
64
1089
5476
9216
7396
1936
0
400
484
625
961
1521
2304
3844
4096
1849
16
1369
5776
9216
6889
1521
16
441
484
625
961
1444
2500
3969
3844
1369
4
2116
6561
8836
5625
900
81
529
484
625
1024
1600
2704
4225
3721
1089
64
2809
7569
9025
4900
484
196
625
625
784
1089
1600
2916
4356
3136
676
289
3844
8464
8649
3600
169
289
625
576
784
1156
1849
3481
4761
3025
361
625
4624
9025
8100
2916
49
289
484
529
841
1296
2116
3481
4225
2401
144
900
5041
9216
7921
2304
4
400
529
625
900
1369
2116
3600
4225
2025
49
1156
5329
9025
7056
1764
1
400
441
529
900
1444
2304
3844
4096
1764
4
1681
5929
9025
6561
1369
25
529
576
676
900
1296
2209
3844
3969
1521
1
2116
6724
9025
5625
841
81
529
484
625
1089
1600
2601
3969
3600
1156
64
2809
7396
9025
4900
484
196
625
576
729
1089
1681
3025
4489
3249
676
289
3721
8464
8649
3721
225
225
529
625
900
1296
1936
3364
4489
2916
361
576
4489
8836
8100
2809
36
324
484
484
784
1296
2025
3600
4489
2500
169
900
5041
9025
7569
2025
1
361
441
441
784
1225
2209
3721
4356
2116
81
1225
5476
9025
7056
1681
4
441
484
576
900
1444
2304
3721
3969
1764
4
1681
5929
9025
6561
1369
25
484
529
625
961
1369
2304
3844
3969
1521
1
2116
6561
9216
5776
900
121
625
625
729
1024
1521
2601
4096
3481
961
100
3136
7744
9025
4489
361
225
576
576
784
1156
1681
3025
4356
3136
576
361
3969
8464
8281
3481
144
256
529
529
784
1225
1936
3481
4624
2809
289
676
4624
9025
8100
2704
16
400
529
529
784
1296
2025
3481
4096
2116
100
1024
5041
9025
7396
1849
1
400
441
529
900
1369
2209
3844
4096
1849
16
1444
5929
9409
6889
1444
16
529
576
676
1024
1521
2500
4096
3721
1296
36
2601
7225
9025
5184
676
144
576
576
784
1156
1681
2916
4356
3364
784
225
3481
8100
8836
3969
289
196
529
625
900
1296
1764
3249
4624
3025
441
484
4356
9025
8464
3025
81
289
529
625
900
1296
1936
3364
4356
2601
225
841
4900
9216
7921
2500
25
361
529
625
1024
1521
2304
3844
4356
2025
49
1296
5776
9604
7569
1849
0
400
484
676
1024
1600
2500
3969
4096
1600
0
1764
6241
9216
6400
1225
25
484
576
729
1089
1600
2601
4096
3721
1296
36
2704
7569
9216
5041
576
144
576
576
729
1089
1600
2916
4356
3249
729
225
3600
8281
8649
3844
225
256
576
625
900
1225
1849
3249
4356
2916
400
529
4489
8649
8281
2916
64
324
484
529
841
1369
2025
3481
4356
2500
196
900
5041
9216
7921
2401
9
361
441
576
900
1369
2209
3721
4356
2304
100
961
5184
9409
7744
2025
0
400
484
576
961
1444
2304
3721
4225
1936
25
1369
5776
9216
6889
1521
16
441
484
625
961
1444
2401
4096
3969
1521
1
2116
6724
9216
5929
961
64
529
529
676
1024
1521
2500
4225
3721
1225
49
2809
7396
8836
4761
529
169
576
576
729
1089
1681
2809
4225
3249
676
256
3721
8281
8649
3600
169
225
529
576
900
1369
1936
3364
4489
2809
361
625
4624
9025
8100
2809
49
289
484
625
961
1369
2025
3481
4356
2500
196
841
5041
9216
7921
2304
9
324
484
576
961
1444
2209
3721
4225
2116
64
1225
5476
9216
7225
1849
0
400
484
625
961
1444
2304
3844
4096
1764
9
1600
6084
9409
6724
1444
25
529
576
625
1024
1444
2500
3969
3844
1369
9
2304
6889
9025
5625
841
100
625
625
784
1156
1600
2704
4096
3481
961
121
3136
7744
9025
4489
400
196
576
576
729
1089
1764
3249
4624
3249
576
400
4225
8649
8281
3364
121
256
529
625
900
1225
1849
3364
4489
2809
256
729
4761
9216
8100
2500
16
324
484
576
900
1369
2209
3721
4225
2116
81
1089
5329
9216
7396
1849
0
400
441
529
900
1369
2304
3721
4096
1849
16
1444
5776
9025
6561
1369
16
441
484
576
900
1444
2304
3844
3844
1444
4
2209
6724
9025
5625
900
81
576
576
676
1024
1600
2704
4225
3600
1089
81
2916
7396
8836
4761
441
196
625
576
784
1156
1681
2916
4225
3136
676
289
3844
8464
8649
3721
169
324
576
576
784
1156
1849
3249
4489
2916
400
576
4489
8836
8281
2809
49
289
484
529
784
1296
1936
3364
4356
2500
196
784
4900
9025
7744
2304
4
361
484
529
900
1369
2209
3721
4356
2116
64
1225
5476
9216
7225
1849
1
441
484
529
900
1369
2209
3844
4096
1849
16
1444
5776
9216
6724
1444
25
484
529
625
961
1444
2304
3844
3844
1369
4
2209
6561
9025
5625
841
81
576
529
625
1024
1600
2704
4225
3721
1089
81
2916
7744
9025
4761
441
196
625
576
784
1156
1681
2916
4356
3249
625
324
3969
8464
8649
3481
144
256
529
529
841
1296
1849
3364
4489
2704
289
625
4489
8836
7921
2601
36
324
484
529
841
1296
2116
3600
4225
2209
121
1024
5184
9216
7396
1936
1
400
441
484
841
1369
2304
3844
4225
1849
16
1521
5776
9409
6889
1521
16
441
529
576
1024
1521
2401
3969
3844
1296
16
2500
7056
8836
5184
676
121
529
529
729
1156
1681
2809
4225
3364
841
169
3481
8100
8649
3844
256
256
576
576
729
1156
1764
3136
4624
3136
484
484
4225
8464
8100
3025
64
289
529
529
841
1225
1936
3364
4225
2500
225
784
4761
9025
7921
2500
9
361
484
529
900
1369
2116
3600
4225
2209
81
1089
5184
9025
7396
1936
0
400
484
576
961
1444
2304
3721
4225
1849
25
1296
5625
9216
6889
1521
16
484
484
576
961
1444
2401
3844
3844
1444
1
2116
6561
9025
5776
961
81
576
529
676
1024
1521
2500
4096
3721
1156
49
2809
7396
8836
4761
484
196
625
529
729
1089
1521
2809
4356
3249
729
289
3721
8464
8649
3721
225
256
576
625
841
1225
1764
3249
4624
3025
400
529
4489
8649
8281
2916
64
324
484
529
841
1296
2025
3481
4489
2601
196
841
5041
9216
7921
2304
4
361
484
576
900
1369
2116
3721
4225
2209
64
1089
5476
9216
7225
1849
0
400
484
576
961
1444
2304
3844
4096
1849
16
1369
5625
9025
6724
1444
9
441
484
625
961
1444
2304
3844
3844
1444
1
2116
6561
9025
5776
961
81
576
529
625
1024
1600
2601
3969
3481
1089
49
2704
7225
8836
4900
529
169
625
576
729
1089
1681
2809
4225
3249
729
225
3600
8281
8464
3721
225
256
529
576
841
1225
1849
3249
4489
3025
400
576
4489
8836
8100
2916
64
256
441
484
841
1296
2116
3481
4489
2500
169
841
4900
8836
7569
2304
4
324
441
484
841
1369
2116
3600
4225
2116
64
1089
5184
9216
7225
1849
1
441
441
529
841
1444
2401
3844
4096
1764
4
1681
5929
9025
6561
1369
49
529
576
625
961
1444
2304
3721
3721
1444
1
1936
6400
9025
5929
1024
81
576
576
625
1024
1444
2704
4096
3721
1089
81
3025
7921
9025
4624
400
196
576
576
729
1156
1681
3025
4489
3249
576
324
3969
8464
8649
3481
144
289
529
529
784
1225
1936
3364
4489
2809
324
576
4356
8836
7921
2601
36
324
441
484
841
1225
2025
3600
4356
2304
121
961
5041
9216
7569
2025
0
400
529
576
841
1369
2209
3721
4096
1936
36
1296
5476
9025
7056
1681
9
484
484
529
900
1369
2304
3721
3844
1600
1
1681
5929
8836
6241
1225
49
529
529
625
961
1369
2401
3969
3844
1296
16
2500
7056
9025
5329
676
144
576
529
676
1089
1681
2916
4356
3249
841
196
3481
8100
8649
3969
256
256
576
576
784
1156
1764
3136
4489
3025
441
441
4225
8464
8100
2916
64
324
484
484
784
1225
1936
3364
4356
2500
225
784
4624
8836
7569
2304
4
361
441
529
841
1296
2025
3481
4096
2209
81
961
5041
9025
7396
2025
0
441
484
576
961
1521
2304
3600
3969
1936
36
1225
5329
9025
6889
1600
9
484
484
529
900
1369
2304
3721
3844
1600
4
1600
5776
9025
6400
1225
49
576
529
625
961
1369
2304
3721
3721
1296
9
2304
6724
8836
5476
841
121
625
576
625
1024
1521
2704
4225
3481
961
121
3025
7569
8649
4356
361
225
576
576
729
1156
1681
3025
4356
3136
576
361
3969
8464
8281
3364
100
289
529
529
784
1225
1849
3249
4489
2704
289
625
4624
8836
7921
2601
16
361
484
484
784
1296
2116
3600
4356
2304
121
900
4900
9025
7396
2116
0
400
441
484
841
1296
2116
3721
4225
2116
81
1156
5329
9025
7056
1764
4
441
441
529
841
1369
2304
3844
4096
1764
4
1681
5929
8836
6561
1296
25
484
484
576
961
1444
2401
3969
3721
1369
9
2209
6561
8836
5625
841
144
625
576
676
961
1444
2601
3969
3481
1024
81
2916
7569
8836
4489
441
225
676
625
784
1089
1600
2916
4356
3136
625
289
3969
8464
8464
3481
144
324
576
529
784
1156
1849
3249
4489
2916
361
576
4356
8649
8100
2704
36
324
484
484
784
1296
2025
3600
4225
2304
144
900
5041
9025
7569
2116
0
441
484
529
841
1296
2209
3721
4096
1849
36
1225
5476
9025
7056
1681
9
441
441
484
841
1369
2304
3844
4096
1681
4
1681
5929
8836
6241
1225
49
529
484
576
961
1444
2304
3844
3721
1296
16
2304
6561
8649
5184
676
144
576
484
625
1024
1600
2704
4096
3249
784
169
3249
7744
8649
3969
289
256
625
576
729
1156
1764
3136
4489
3025
484
441
4096
8464
8100
3025
81
289
441
484
784
1156
1849
3249
4356
2809
289
676
4761
8836
8100
2500
4
400
484
484
784
1225
2025
3481
4225
2209
100
900
4900
8836
7396
1936
1
441
441
484
841
1444
2209
3721
4096
1849
36
1225
5625
9025
7056
1600
16
484
484
576
961
1444
2401
3844
3844
1444
1
2025
6241
9025
6084
1089
64
576
576
676
1089
1521
2601
3969
3600
1089
64
2916
7569
9025
4761
441
196
625
576
729
1089
1600
2809
4225
3249
676
256
3600
8100
8464
3600
169
256
576
529
784
1225
1849
3249
4489
2916
361
576
4489
8649
7921
2704
36
324
484
529
841
1296
2116
3481
4225
2304
121
900
4900
9216
7744
2209
0
400
441
529
900
1369
2209
3600
4096
2116
64
1089
5184
9025
7396
1764
4
400
441
529
900
1369
2209
3721
3969
1681
9
1521
5776
8836
6400
1296
36
529
484
576
961
1444
2304
3844
3721
1296
9
2209
6724
8649
5476
784
100
576
529
625
1024
1521
2704
4225
3600
961
121
3025
7744
8836
4356
324
225
576
529
676
1089
1764
3249
4489
3136
529
400
3969
8464
8281
3249
100
289
529
576
841
1225
1849
3249
4356
2704
256
676
4624
8836
7744
2500
16
324
441
484
784
1296
2025
3481
4225
2209
100
1024
5184
9025
7396
1764
4
441
441
484
841
1369
2209
3721
4096
1849
9
1521
5929
9216
6724
1369
16
484
484
625
961
1369
2304
3844
3844
1521
0
1936
6400
9025
5929
1024
81
529
529
676
1024
1600
2704
4096
3600
1089
81
3025
7744
9025
4624
441
196
625
625
784
1089
1681
3025
4356
3249
625
289
3844
8649
8836
3721
196
225
529
625
900
1296
2025
3481
4624
2916
324
676
4624
8836
8100
2704
64
256
441
529
900
1369
2209
3600
4356
2304
121
961
5184
9409
7744
2116
1
361
441
529
961
1444
2304
3844
4225
1936
25
1369
5476
9025
6889
1600
4
400
484
625
961
1444
2304
3844
3969
1600
0
1849
6241
9025
6084
1156
49
529
529
676
1024
1521
2500
3969
3721
1225
36
2704
7396
9025
5041
576
169
625
576
784
1156
1681
2916
4356
3249
676
225
3600
8100
8464
3721
225
256
529
529
784
1225
1849
3249
4489
3025
441
484
4225
8464
7921
2916
64
289
441
484
784
1296
1936
3481
4356
2401
169
841
4900
8836
7744
2209
1
361
484
529
841
1296
2116
3600
4225
2116
100
1089
5184
9216
7056
1681
9
400
441
529
900
1444
2304
3844
3969
1600
0
1681
6084
9025
6400
1156
49
529
529
625
961
1444
2500
3969
3844
1369
9
2209
6724
9025
5476
841
100
625
576
676
961
1444
2601
3969
3481
1024
100
3025
7744
8836
4225
324
225
625
576
784
1225
1764
3136
4356
3025
529
400
4096
8649
8281
3249
121
256
484
529
841
1369
2025
3481
4356
2601
225
676
4761
8836
7921
2500
9
361
441
484
841
1296
2025
3481
4356
2304
144
900
5041
9025
7569
2116
0
400
484
529
900
1296
2116
3600
4225
2025
64
1156
5329
9025
7056
1681
4
441
441
529
900
1369
2304
3721
3969
1681
4
1681
5929
9025
6400
1296
49
529
529
625
1024
1521
2500
4096
3721
1296
36
2601
7225
9025
5184
625
169
576
576
729
1024
1600
2809
4356
3249
841
196
3481
8100
8649
3721
225
225
529
529
729
1156
1764
3249
4761
3249
484
441
4356
8649
8100
3025
64
289
484
484
729
1225
2025
3481
4356
2500
196
784
4900
9025
7744
2401
9
324
441
529
841
1369
2116
3600
4225
2209
121
1024
5184
9216
7225
1764
1
400
441
529
900
1369
2209
3721
3969
1764
9
1600
5776
9025
6724
1369
25
484
484
625
961
1444
2401
3844
3844
1444
4
2116
6561
9025
5625
784
121
576
529
625
900
1444
2601
3969
3600
1089
64
2916
7569
9025
4624
441
225
625
576
729
1089
1600
2916
4356
3136
625
289
3844
8281
8464
3481
144
289
529
576
784
1225
1849
3364
4489
2704
324
625
4489
8649
7744
2601
36
324
441
484
784
1296
2025
3600
4356
2401
144
900
5041
9216
7569
2025
0
441
484
484
841
1296
2116
3721
4096
2025
49
1156
5476
9025
7056
1600
9
484
484
529
900
1369
2209
3600
3844
1681
4
1521
5776
8836
6400
1296
36
484
484
576
900
1369
2401
3844
3844
1369
9
2116
6561
8649
5329
784
144
625
529
625
900
1369
2500
3969
3600
1089
64
2916
7569
8836
4761
441
225
625
576
729
1089
1600
2916
4356
3136
625
289
3721
8281
8464
3481
144
289
529
529
729
1156
1849
3249
4489
2916
400
529
4489
8836
8100
2704
36
324
484
484
729
1225
1936
3364
4225
2500
196
784
4761
9025
7569
2209
1
400
400
484
841
1296
2209
3721
4356
2116
64
1089
5184
8836
7056
1764
4
441
400
441
841
1296
2116
3721
3969
1764
16
1444
5776
8836
6400
1296
49
484
441
529
900
1369
2401
3969
3844
1369
16
2304
6724
8836
5184
676
169
576
529
625
961
1521
2601
4096
3364
841
121
3025
7569
8649
4225
324
225
576
576
784
1089
1681
3025
4225
3025
484
441
4096
8464
8100
3136
81
289
484
529
841
1225
1849
3249
4356
2601
289
676
4624
8836
7744
2304
4
400
441
441
784
1225
2025
3600
4225
2304
121
961
5184
9216
7396
1936
0
441
441
441
841
1369
2209
3600
4096
2025
64
1156
5329
9216
7056
1681
9
400
441
529
900
1369
2209
3721
3844
1600
4
1600
5625
8836
6241
1225
49
529
484
576
900
1369
2304
3844
3721
1296
9
2304
6724
8649
5329
676
196
676
529
676
961
1444
2500
3969
3364
1024
100
2916
7569
8649
4225
289
256
576
484
676
1024
1521
2809
4225
3136
529
361
3969
8281
7921
3025
81
289
484
441
729
1156
1849
3249
4356
2704
289
625
4489
8836
7744
2401
4
484
529
529
784
1156
1849
3249
4096
2304
144
900
4900
9025
7396
1936
1
441
400
484
784
1296
2116
3600
4096
2025
49
1156
5329
9025
7056
1681
16
529
484
529
841
1225
2209
3721
3844
1521
0
1764
5929
8836
5929
1024
81
576
484
529
900
1369
2500
3969
3721
1225
36
2601
7225
8649
4761
441
225
625
484
576
1024
1444
2704
4096
3249
784
196
3249
7921
8464
3721
196
289
576
529
676
1024
1681
3025
4489
2916
441
441
4225
8464
7744
2704
36
361
484
441
729
1089
1764
3249
4225
2500
225
784
4624
8836
7569
2209
1
400
441
484
784
1225
2025
3364
4096
2209
100
961
5041
8836
7056
1849
1
441
441
441
784
1296
2116
3481
4096
1936
36
1296
5476
8836
6724
1369
36
529
441
529
841
1296
2209
3600
3721
1444
1
2025
6084
8649
5776
900
100
576
484
529
900
1369
2500
3969
3600
1225
49
2704
7225
8464
4489
400
225
576
484
625
961
1521
2704
4096
3249
729
169
3249
7921
8464
3844
196
289
625
576
729
1089
1681
3025
4225
2809
361
484
3969
8100
7569
2704
36
289
400
400
676
1156
1936
3364
4225
2401
196
784
4624
8649
7396
2025
0
400
441
441
729
1225
1936
3364
4096
2209
100
961
4900
8649
7225
1849
4
484
441
400
784
1296
2116
3600
3844
1764
25
1225
5329
8649
6561
1369
49
484
400
441
784
1369
2304
3721
3721
1369
4
2025
6241
8464
5476
841
144
625
529
529
900
1369
2401
3844
3481
1089
49
2601
7056
8649
4489
400
225
625
529
576
961
1444
2809
4096
3136
676
196
3481
7921
8464
3721
169
361
676
529
729
1089
1681
3025
4356
2809
400
529
4225
8281
7921
2809
36
324
441
400
676
1156
1849
3364
4225
2500
196
729
4624
8649
7396
2116
1
400
441
441
729
1225
2025
3481
4225
2116
100
1024
5041
8836
7056
1600
16
484
400
400
784
1225
2116
3600
3844
1600
1
1681
5929
8649
6084
1089
81
529
484
529
841
1369
2304
3844
3721
1296
9
2209
6400
8464
5329
676
169
625
484
625
900
1369
2500
3844
3364
1024
81
2916
7396
8649
4225
361
289
625
529
625
961
1521
2704
4096
3136
676
289
3600
8100
8281
3481
121
324
576
484
729
1156
1764
3136
4356
2809
361
576
4489
8649
7744
2601
25
361
400
484
784
1225
1936
3364
4096
2304
144
841
4624
8464
7225
1936
0
400
361
400
676
1225
2116
3600
4225
2025
81
1024
5041
8649
7056
1681
9
400
361
400
784
1296
2116
3721
3969
1764
9
1444
5625
8649
6400
1296
49
484
441
529
1024
1521
2401
3721
3481
1225
16
2304
6561
8649
5041
625
196
676
484
576
961
1369
2500
3969
3364
900
100
2916
7396
8464
4356
289
324
625
484
625
961
1521
2809
4096
3136
625
289
3600
8100
8281
3364
100
324
529
441
676
1089
1600
3136
4356
2916
361
529
4225
8281
7396
2401
16
361
400
400
676
1156
1936
3481
4225
2304
121
961
4900
8836
7396
1936
4
441
441
441
729
1296
2116
3600
4096
1849
36
1156
5184
8649
6724
1521
25
484
400
484
841
1296
2209
3721
3721
1444
0
1764
5929
8649
5929
961
121
576
441
441
841
1369
2500
3969
3600
1156
36
2500
6889
8649
4761
441
289
729
529
576
900
1444
2500
3969
3136
729
169
3249
7569
8281
3844
196
289
529
441
625
1024
1600
3025
4356
2916
484
400
3969
8100
7744
2809
49
324
441
400
676
1089
1764
3249
4225
2500
225
676
4356
8464
7569
2304
4
400
441
400
676
1156
1936
3364
4225
2209
144
841
4761
8836
7225
1849
4
441
400
400
784
1225
2025
3364
3844
1849
49
1089
5041
8649
6724
1521
36
529
441
441
784
1296
2209
3600
3721
1521
0
1681
5776
8649
5929
1024
100
576
441
484
841
1369
2401
3844
3481
1156
36
2500
6889
8281
4624
441
256
676
484
529
841
1369
2500
3844
3025
841
121
3025
7396
8100
3844
225
289
576
441
625
1024
1600
2916
4225
2916
484
400
3969
7921
7744
2809
49
324
441
400
676
1156
1764
3136
4225
2601
256
676
4489
8464
7396
2304
4
361
400
361
676
1225
2025
3364
4225
2304
144
900
4761
8464
7056
1849
1
441
361
400
676
1225
2025
3481
3969
1936
64
1089
5184
8649
6561
1444
25
441
400
441
784
1296
2209
3600
3600
1521
0
1764
5929
8464
5776
961
144
625
441
441
784
1225
2304
3721
3600
1156
25
2304
6400
8281
4761
484
256
625
400
484
841
1369
2601
3844
3136
841
121
3025
7225
8464
3969
225
289
625
441
576
961
1521
2916
4096
3025
576
289
3600
7744
7744
3136
81
289
441
400
625
1024
1764
3136
4225
2809
361
529
4225
8281
7569
2401
4
400
400
361
625
1089
1764
3249
4096
2500
225
676
4489
8649
7225
2116
0
361
361
400
676
1225
2025
3364
4096
2116
121
961
5041
8836
6889
1681
9
484
400
400
729
1225
2025
3481
3969
1936
36
1296
5329
8649
6400
1225
64
576
400
441
729
1296
2209
3600
3481
1369
4
2116
6400
8649
5476
729
196
625
441
484
841
1369
2500
3844
3364
1024
49
2704
7056
8464
4356
361
289
676
441
529
841
1444
2704
3969
3025
676
196
3249
7396
7921
3481
144
324
529
441
625
1024
1600
3025
4096
2809
400
484
3969
8100
7744
2704
25
361
441
400
676
1156
1849
3249
4096
2500
225
676
4489
8464
7396
2116
1
400
400
361
625
1089
1936
3481
4356
2209
100
961
4900
8836
7225
1764
9
484
400
441
784
1225
2116
3364
3844
1849
36
1296
5329
8649
6400
1225
64
529
441
441
784
1225
2209
3600
3600
1369
1
1936
6084
8464
5476
784
169
625
484
484
841
1369
2500
3844
3364
961
49
2500
6889
8464
4761
441
289
676
484
529
841
1369
2601
3969
3136
784
144
3025
7396
8281
3844
196
324
625
484
576
961
1521
2809
4096
2916
529
324
3721
8100
8100
3136
81
324
484
441
676
1089
1764
3136
4096
2601
324
576
4225
8100
7396
2401
9
361
400
361
676
1156
1936
3364
4225
2401
196
729
4624
8464
7396
2025
1
400
400
361
676
1156
1936
3249
3844
2025
100
961
4761
8281
6561
1521
16
400
361
361
784
1296
2209
3721
3844
1600
1
1600
5776
8649
6241
1156
81
529
441
529
900
1369
2209
3600
3364
1225
9
2116
6241
8281
4900
625
196
676
484
484
841
1369
2500
3844
3364
961
64
2601
6724
8464
4624
400
289
676
484
576
841
1369
2601
3844
3025
729
169
3136
7396
8281
3844
196
361
625
484
625
961
1521
2809
4096
2916
529
324
3844
8100
7921
3025
64
324
484
400
625
1156
1849
3249
4225
2704
324
529
4225
8281
7744
2500
16
361
400
400
676
1089
1849
3249
4225
2401
169
841
4624
8464
7225
1849
1
400
400
361
729
1225
1936
3249
3969
2025
81
1024
5041
8464
6724
1600
16
484
441
484
841
1225
2116
3481
3721
1600
4
1600
5625
8649
6084
1089
64
576
441
484
784
1296
2209
3600
3481
1369
4
2025
6241
8464
5184
676
169
625
441
529
900
1369
2401
3721
3364
1089
49
2704
7056
8464
4489
361
289
625
441
529
961
1521
2809
3969
3025
676
225
3481
7744
7921
3481
144
289
484
400
625
1089
1681
3025
4225
2916
400
484
3969
8100
7744
2704
25
361
441
361
625
1156
1849
3364
4225
2500
225
729
4489
8464
7569
2116
0
361
400
400
676
1156
1936
3249
3969
2209
121
900
4900
8649
7056
1681
9
529
441
400
729
1225
2025
3364
3844
1764
25
1369
5476
8836
6400
1225
49
576
441
484
900
1444
2401
3844
3721
1369
4
2025
6561
8836
5476
729
196
676
529
529
900
1369
2500
3844
3249
961
64
2601
6889
8464
4624
400
289
676
484
576
841
1369
2601
3969
3136
784
144
3136
7744
8649
3844
196
324
576
484
625
1089
1681
3025
4356
3136
484
400
3969
8281
7921
2916
64
289
441
441
676
1156
1764
3136
4356
2809
324
625
4356
8464
7744
2500
16
324
400
441
729
1296
2025
3481
4096
2116
121
961
5041
8836
7225
1849
1
400
400
484
841
1296
2116
3481
3844
1764
36
1225
5184
8464
6561
1369
36
529
441
484
841
1225
2116
3600
3600
1444
0
1936
6241
8464
5476
841
121
576
484
576
900
1369
2401
3844
3481
1156
36
2500
7056
8649
4761
529
196
625
529
676
961
1521
2704
4096
3249
729
169
3249
7744
8281
3721
196
289
484
484
676
1089
1681
3025
4356
3025
484
441
4096
8281
7921
2916
64
225
400
441
784
1225
1936
3364
4356
2601
225
729
4489
8649
7569
2304
9
324
400
441
841
1296
2116
3481
4096
2209
121
961
5041
9025
7225
1936
0
361
400
441
841
1369
2116
3600
3969
1936
49
1296
5625
9216
6889
1444
25
484
529
576
961
1521
2401
3721
3721
1444
1
2025
6561
8836
5776
900
81
576
484
625
961
1521
2601
3969
3600
1156
36
2500
7056
9025
5184
576
196
676
576
676
1024
1600
2809
4225
3249
784
169
3364
7921
8836
4096
256
256
576
576
784
1225
1764
3136
4356
3025
484
441
4096
8281
7921
2916
81
225
361
400
676
1225
1936
3600
4761
2916
289
784
4761
9025
7921
2601
25
256
361
484
961
1444
2116
3600
4096
2025
81
1089
5184
9025
7225
1764
4
441
441
529
900
1369
2209
3721
3969
1764
16
1600
5929
9025
6561
1296
36
484
484
529
961
1444
2401
3844
3721
1296
4
2209
6561
8836
5476
729
169
625
529
576
961
1521
2500
3969
3481
1024
64
2704
7225
8649
4624
400
225
625
529
676
1089
1600
2916
4356
3136
676
289
3600
8100
8464
3481
169
225
441
529
784
1225
1849
3249
4356
2704
361
576
4356
8649
7921
2809
36
256
400
484
900
1369
2025
3364
4225
2304
144
900
5041
8836
7396
2025
0
400
441
484
841
1296
2116
3481
3969
2025
64
1156
5329
8836
6889
1600
9
441
441
529
900
1369
2116
3600
3844
1764
9
1600
5776
8836
6241
1225
49
484
441
576
961
1444
2401
3844
3600
1369
16
2304
6889
8836
5184
625
144
625
576
676
1024
1600
2809
4225
3249
841
169
3249
7744
8464
3969
289
225
484
484
729
1156
1681
3136
4356
3136
529
361
3844
8100
7921
3136
121
256
400
484
784
1296
1936
3364
4225
2401
169
841
4761
8836
7569
2209
1
361
441
484
841
1296
2209
3600
4225
2116
81
1089
5184
8836
7225
1764
4
400
400
484
841
1369
2209
3600
3969
1764
9
1521
5625
8649
6400
1369
25
484
484
529
961
1369
2304
3721
3721
1444
0
1849
6241
8836
5929
961
100
529
484
576
961
1444
2304
3721
3481
1156
25
2401
7056
8649
4761
529
196
625
576
676
961
1444
2601
4096
3249
841
169
3364
7921
8836
3969
256
289
625
576
784
1156
1600
3025
4225
3136
529
400
4096
8464
8281
3136
100
289
441
484
784
1225
1936
3481
4489
2601
225
729
4761
8836
7744
2304
4
361
441
441
729
1225
2025
3364
4225
2209
121
900
4900
9025
7396
2025
1
400
441
529
841
1296
2116
3481
3969
1936
36
1296
5476
8836
6724
1521
16
441
400
529
900
1444
2401
3844
3844
1444
1
1936
6400
8649
5776
961
100
529
484
576
961
1521
2500
3969
3721
1225
25
2500
7056
8836
5041
576
196
625
529
625
1024
1521
2704
4096
3249
729
196
3364
7921
8649
3844
196
256
529
529
729
1156
1681
3249
4489
2916
400
484
4225
8649
8100
2916
49
289
441
529
841
1296
1936
3249
4356
2500
225
729
4624
8836
7744
2304
4
361
400
441
784
1296
2025
3481
4096
2209
121
961
5041
9025
7396
1936
1
400
400
484
784
1296
2116
3600
3969
1936
36
1225
5329
8836
6561
1444
36
529
484
576
900
1369
2209
3600
3721
1444
1
2025
6241
8836
5776
900
121
576
484
576
1024
1521
2704
3969
3481
1024
81
2809
7396
8836
4624
361
256
576
529
676
1024
1600
2809
4225
3249
676
256
3600
7921
8100
3481
144
225
441
441
676
1156
1849
3249
4624
3136
400
576
4489
8836
8100
2809
25
324
441
484
784
1296
1936
3364
4096
2304
144
841
4761
9025
7569
2116
0
361
361
441
841
1444
2304
3721
4225
2025
64
1089
5184
8649
6889
1681
1
361
361
441
841
1444
2304
3844
4096
1681
9
1521
5776
8649
6400
1369
36
484
441
529
900
1369
2209
3721
3721
1521
0
1936
6400
8836
5625
900
100
576
576
676
961
1444
2601
3969
3481
1089
64
2916
7569
9025
4900
529
196
625
625
841
1156
1764
3136
4356
3364
729
256
3721
8464
8836
3969
225
169
484
576
841
1296
1849
3364
4624
3025
441
576
4489
8649
8100
2916
64
256
441
484
900
1369
2116
3600
4489
2401
169
900
4900
9025
7569
2304
9
324
400
484
841
1369
2209
3721
4356
2209
81
1089
5184
9025
7225
1764
1
361
441
529
900
1369
2209
3721
3969
1764
16
1521
5929
9025
6561
1296
36
484
484
576
900
1444
2401
3969
3844
1369
9
2209
6724
8836
5625
784
121
529
576
729
1156
1600
2601
3969
3364
900
100
2916
7569
8836
4356
361
225
625
576
784
1156
1681
3025
4356
3136
529
400
3969
8464
8281
3249
100
256
484
529
900
1296
2025
3481
4489
2704
256
784
4761
9025
7921
2500
16
324
484
529
900
1369
2025
3481
4096
2116
100
1024
4900
8836
7056
1849
0
361
400
484
900
1369
2304
3721
3844
1681
4
1600
5776
8836
6241
1296
36
484
484
576
900
1369
2304
3721
3721
1521
1
2025
6561
8649
5625
900
144
625
576
676
961
1444
2500
3721
3364
1089
64
2704
7396
9025
4761
441
225
625
576
729
1089
1600
2916
4225
3249
729
256
3481
8100
8649
3844
225
196
529
576
841
1225
1849
3249
4489
3025
441
529
4225
8464
8100
2916
81
225
400
484
841
1369
2116
3721
4489
2500
169
900
4900
9025
7921
2401
4
324
441
529
900
1369
2116
3600
4096
2025
64
1089
5184
8836
6889
1764
1
400
441
529
900
1369
2209
3721
3969
1764
9
1521
5776
8836
6561
1369
25
441
484
625
961
1444
2304
3721
3721
1444
0
2116
6400
8836
5776
900
100
576
529
676
1089
1521
2601
4096
3481
961
81
3025
7396
8836
4761
441
196
625
576
729
1089
1681
3025
4489
3249
625
289
3721
8281
8464
3600
169
256
484
529
841
1225
1764
3364
4489
2809
361
625
4489
8464
7921
2704
36
256
400
484
841
1296
2025
3481
4356
2401
169
841
4761
9025
7744
2209
0
400
441
529
841
1369
2116
3481
4096
2025
64
1089
5184
8649
6889
1681
1
400
441
529
900
1369
2116
3600
3844
1681
4
1600
5776
8464
6084
1225
36
484
441
576
961
1444
2401
3844
3721
1444
4
2025
6400
8836
5776
900
100
625
576
676
1024
1521
2500
3969
3481
1024
64
2916
7569
9025
4624
441
225
625
529
784
1156
1600
2916
4356
3136
676
256
3600
8100
8464
3600
196
225
484
529
784
1225
1936
3364
4489
2809
361
576
4356
8464
7744
2601
36
324
441
484
784
1225
1936
3364
4225
2304
144
900
4900
8836
7569
2116
0
400
400
484
841
1369
2116
3600
4096
2025
49
1156
5184
8649
6889
1681
4
441
484
576
961
1369
2209
3481
3721
1600
4
1600
5776
8836
6241
1296
36
484
529
576
961
1369
2304
3721
3600
1369
1
1936
6241
8649
5776
900
100
576
529
625
1024
1521
2601
3969
3481
1024
81
2809
7396
8836
4624
400
225
576
529
676
1089
1681
3025
4356
3249
676
289
3600
8281
8464
3600
169
256
484
529
784
1225
1849
3249
4489
2916
361
576
4356
8464
7921
2704
36
289
400
529
841
1225
1936
3364
4225
2401
169
841
4900
8836
7744
2116
0
400
400
529
900
1369
2116
3481
3969
2025
49
1156
5329
8836
7056
1681
9
441
484
529
900
1369
2209
3481
3844
1681
1
1600
5776
8649
6241
1225
49
529
484
529
900
1369
2304
3721
3721
1369
1
2025
6400
8836
5625
841
121
576
484
625
961
1444
2601
3844
3364
1024
64
2704
7225
8836
4624
441
225
625
529
676
1024
1521
2916
4225
3249
676
256
3600
8100
8281
3600
169
256
484
529
784
1225
1849
3364
4489
2809
324
576
4356
8649
7921
2809
49
289
441
484
841
1296
2025
3600
4356
2401
144
900
4900
8649
7396
2116
1
361
441
484
900
1369
2116
3481
4096
2116
64
1156
5329
9216
7225
1764
1
400
484
625
1024
1444
2304
3721
3969
1681
1
1936
6561
9216
6241
1225
49
529
576
784
1156
1521
2500
3969
3721
1296
25
2601
7396
9025
5041
576
144
625
576
784
1156
1681
2916
4096
3249
784
196
3364
8100
8836
4096
289
196
529
576
784
1225
1764
3136
4624
3249
484
400
4096
8464
8281
3249
121
225
441
576
900
1369
1936
3364
4356
2601
225
784
4900
9025
7921
2304
9
361
400
484
841
1296
2116
3600
4356
2304
100
1024
5184
9216
7396
1936
1
361
441
529
900
1296
2209
3721
3969
1764
16
1444
5776
8836
6724
1444
25
484
484
676
1024
1600
2704
4225
3721
1156
49
2704
7225
9025
5041
576
169
625
529
676
1024
1600
2809
4225
3364
784
169
3364
7921
8836
3969
289
196
484
576
841
1225
1849
3364
4761
3136
441
529
4356
8649
8281
3025
81
256
441
529
841
1296
1936
3364
4356
2601
256
784
4761
9025
7921
2500
25
289
441
576
900
1369
2209
3600
4225
2209
100
1089
5329
9216
7225
1764
1
400
441
576
1024
1521
2401
3721
3844
1521
0
1936
6241
9025
6084
1089
64
529
484
625
1024
1444
2601
4096
3600
1225
36
2601
7396
9025
4900
484
169
625
625
784
1156
1600
2809
4225
3249
729
256
3600
8281
8649
3721
196
225
529
576
900
1225
1764
3249
4356
2916
361
576
4356
8649
8100
2809
49
289
484
576
961
1369
2025
3364
4225
2401
144
900
5041
9216
7744
2209
1
361
484
576
900
1369
2209
3600
4096
2116
49
1225
5476
9025
7225
1764
4
400
441
576
961
1444
2304
3721
3969
1764
9
1521
5625
8836
6561
1369
25
484
484
625
961
1444
2304
3844
3721
1369
1
2116
6561
8649
5625
900
121
576
576
676
1089
1521
2500
4096
3481
961
100
2916
7396
8649
4624
400
225
625
576
729
1089
1681
3025
4356
3249
576
324
3844
8281
8464
3600
169
225
484
529
841
1225
1936
3364
4489
2916
361
576
4356
8649
7921
2601
25
289
400
441
841
1296
2025
3481
4225
2209
121
961
5041
9025
7225
1936
0
361
441
484
841
1369
2209
3600
3969
1936
36
1296
5476
8836
6889
1521
16
484
484
576
961
1444
2401
3844
3721
1521
0
2025
6400
8836
5929
961
100
576
484
576
1024
1444
2601
3969
3600
1089
64
2916
7569
8836
4624
400
225
676
576
729
1024
1600
2916
4356
3136
676
289
3721
8281
8464
3600
169
256
529
576
841
1225
1764
3136
4489
3025
400
625
4489
8649
7921
2704
25
289
361
441
784
1296
2025
3600
4489
2500
144
900
5041
9025
7569
2116
1
361
441
529
900
1369
2116
3721
4096
2025
49
1225
5476
9025
6889
1521
9
441
441
529
900
1369
2209
3721
3844
1681
1
1681
5929
9025
6084
1089
81
576
529
576
900
1369
2304
3844
3600
1296
25
2401
7056
9025
5184
625
196
676
529
676
1024
1600
2809
4096
3249
784
196
3364
7744
8649
3969
256
256
576
576
784
1156
1764
3136
4489
3136
529
400
3969
8281
8100
3136
100
225
441
484
784
1225
1936
3364
4225
2500
196
729
4624
8649
7569
2209
1
361
400
484
841
1296
2116
3481
4096
2025
81
1024
5184
9025
7225
1849
1
441
400
484
841
1369
2209
3721
3969
1681
9
1521
5625
8649
6400
1225
49
529
484
529
900
1369
2304
3721
3721
1444
1
2025
6561
8649
5476
784
144
625
529
625
961
1444
2500
3969
3481
1024
81
2916
7396
8836
4761
400
256
676
529
676
1024
1600
2916
4225
3136
676
256
3481
7921
8281
3481
144
289
529
529
784
1225
1764
3249
4489
2809
361
576
4489
8649
8100
2809
25
324
441
441
784
1225
1936
3481
4356
2500
169
841
4900
9025
7569
2116
1
361
400
441
841
1296
2116
3600
4225
2116
81
1089
5184
8836
7056
1764
1
441
441
529
900
1369
2209
3721
3969
1764
16
1600
5929
9025
6561
1369
25
484
576
676
1089
1521
2500
3969
3844
1296
36
2704
7569
9409
5476
729
121
625
676
841
1225
1681
2916
4489
3481
841
196
3600
8281
9025
4096
324
169
576
625
900
1369
1849
3249
4624
3249
484
441
4225
8836
8649
3364
144
225
484
576
900
1296
2025
3600
4624
2809
225
729
4900
9216
8100
2601
25
324
484
576
961
1369
2116
3721
4225
2209
81
1089
5476
9216
7225
1849
0
400
484
576
900
1444
2304
3721
4096
1849
25
1521
5929
9025
6561
1369
25
484
529
576
961
1444
2401
3969
3721
1444
9
2304
6889
9025
5625
784
121
625
576
729
1024
1521
2704
4096
3481
961
121
3025
7744
8836
4356
324
225
625
576
784
1156
1681
3025
4356
3249
625
324
3844
8464
8464
3481
144
225
484
529
841
1296
1936
3364
4489
2809
289
729
4624
8836
7921
2601
36
289
484
576
900
1369
2025
3481
4225
2209
121
1024
5184
9216
7396
1849
4
400
441
484
841
1296
2209
3721
3969
1849
16
1521
5929
9025
6241
1225
49
484
441
576
961
1521
2401
3844
3600
1296
9
2304
6724
8836
5329
729
144
625
484
625
961
1369
2500
3844
3364
1024
64
2809
7396
8649
4489
361
256
625
529
676
1024
1521
2916
4356
3249
676
289
3721
8281
8464
3600
144
289
529
529
784
1225
1849
3249
4356
2916
400
576
4356
8649
7921
2809
49
289
441
441
784
1296
2025
3600
4356
2500
169
841
4761
9025
7569
2116
1
361
361
484
841
1296
2209
3600
4096
2025
64
1089
5184
8836
6889
1600
9
441
400
484
841
1225
2116
3600
3969
1681
9
1600
5625
8649
6241
1225
49
529
484
576
961
1369
2304
3600
3600
1369
4
2116
6400
8836
5476
784
169
625
529
625
961
1444
2500
3844
3364
1024
81
2916
7396
8649
4489
361
256
625
529
676
1024
1521
2916
4225
3249
625
256
3721
7921
8281
3481
144
289
484
484
729
1156
1764
3249
4356
2809
324
625
4356
8464
7569
2601
16
324
400
441
784
1225
1936
3364
4096
2209
144
841
4761
8836
7225
1936
1
441
400
441
784
1225
2025
3481
3969
1936
49
1156
5184
8649
6561
1444
25
484
400
441
784
1369
2209
3600
3721
1444
0
1849
5929
8464
5776
961
121
576
441
484
841
1296
2304
3721
3481
1225
25
2401
6889
8649
4900
441
256
676
484
576
900
1444
2704
3969
3249
729
169
3249
7569
8281
3844
225
289
529
441
625
1024
1681
3025
4356
3025
441
400
3969
8100
7744
2809
36
324
441
400
676
1156
1849
3249
4225
2500
225
676
4356
8281
7396
2209
4
361
361
400
676
1225
2025
3364
4096
2209
121
841
4761
8649
7396
1936
1
441
400
441
729
1296
2025
3481
3969
2025
64
1089
5041
8464
6724
1521
16
441
400
441
784
1369
2209
3481
3721
1600
1
1600
5776
8836
6084
1024
100
625
484
529
841
1444
2401
3844
3481
1156
49
2500
6889
8464
4624
400
256
625
484
529
961
1444
2601
3969
3136
784
169
3136
7396
8281
3844
196
324
529
441
625
1024
1600
2916
4225
3025
484
400
3969
7921
7569
2704
49
324
441
400
676
1089
1764
3136
4096
2500
225
676
4489
8649
7396
2209
1
400
441
400
676
1225
2025
3481
4096
2116
121
900
4761
8649
7056
1849
1
441
361
441
784
1296
2116
3481
3969
1764
36
1225
5329
8649
6561
1369
36
484
400
484
841
1369
2304
3600
3600
1444
1
1849
6084
8464
5476
784
144
625
484
484
841
1369
2401
3721
3364
1089
49
2500
6724
8464
4624
441
256
676
484
576
900
1444
2704
3969
3025
729
169
3136
7569
8281
3844
196
324
576
484
676
1024
1600
3025
4225
2916
441
441
3969
7921
7569
2704
49
324
400
441
676
1089
1764
3136
4225
2500
256
729
4356
8464
7569
2209
1
361
361
361
676
1225
2025
3481
4096
2025
100
900
4761
8464
7056
1764
9
441
400
400
729
1225
2025
3364
3844
1849
36
1296
5329
8649
6241
1296
36
484
400
484
841
1369
2304
3721
3600
1296
4
2025
6084
8464
5476
784
169
676
484
529
841
1296
2304
3844
3481
1156
49
2601
6889
8464
4489
400
289
676
484
576
841
1369
2601
3844
3136
784
144
3025
7569
8464
3844
225
324
576
484
676
1024
1600
3025
4356
2916
484
441
3844
8100
7921
2916
64
324
441
400
676
1156
1849
3136
4225
2601
289
625
4356
8281
7569
2304
9
324
400
361
676
1225
1936
3364
4096
2116
121
900
4624
8281
6889
1849
1
400
361
441
729
1296
2025
3481
3844
1849
36
1156
5041
8281
6400
1369
36
484
400
441
784
1225
2209
3600
3600
1369
1
1936
6084
8649
5625
784
196
676
484
529
841
1296
2304
3721
3364
1089
49
2601
6889
8464
4624
400
289
729
484
576
900
1444
2601
3969
3136
729
196
3249
7744
8281
3844
196
324
576
441
676
1089
1681
3025
4225
2916
441
441
3969
8281
7744
2809
49
324
441
400
729
1089
1764
3249
4225
2601
256
729
4489
8649
7569
2209
1
361
400
441
729
1225
2025
3364
4096
2116
121
961
4900
8464
7056
1849
1
400
400
441
784
1296
2025
3481
3969
2025
64
1156
5329
8649
6561
1521
25
441
441
529
900
1369
2209
3600
3721
1444
0
1849
6084
8649
5929
961
100
576
484
576
961
1444
2304
3721
3600
1225
16
2500
6889
8836
5041
576
196
625
484
625
961
1521
2704
4096
3364
841
144
3136
7744
8649
4225
289
256
576
529
676
1089
1681
3025
4356
3025
484
400
3969
8281
7744
2916
81
289
441
441
676
1156
1849
3249
4356
2601
256
676
4489
8464
7569
2401
9
361
400
400
729
1225
1936
3364
4096
2304
169
784
4761
8649
7569
2025
0
441
484
484
784
1225
2025
3481
3969
1936
49
1225
5184
8836
6724
1521
25
484
441
484
784
1369
2209
3481
3600
1444
0
1764
5929
8464
5776
900
121
625
484
484
841
1369
2304
3721
3481
1225
25
2304
6724
8649
4900
529
225
676
484
576
900
1444
2601
3969
3136
729
169
3136
7569
8281
3844
225
324
625
529
625
1024
1600
2916
4225
2916
484
400
3844
8281
8100
3025
81
324
484
441
676
1156
1849
3136
4225
2704
256
625
4356
8464
7569
2304
4
361
441
441
676
1156
1936
3364
4096
2209
144
841
4761
8649
7225
1936
1
441
400
441
729
1225
2025
3481
3969
1936
64
1089
5184
8649
6724
1444
25
441
400
441
784
1296
2116
3481
3600
1521
1
1600
5929
8464
5776
961
100
576
484
484
900
1369
2304
3600
3364
1225
16
2401
6724
8649
4900
529
256
676
484
576
900
1444
2500
3844
3136
729
144
3025
7569
8281
3969
225
324
576
484
676
1024
1521
2916
4225
3025
529
400
3844
8100
7744
2916
49
324
441
400
676
1089
1764
3136
4356
2601
256
625
4356
8464
7569
2209
1
400
361
400
676
1156
1936
3481
4096
2209
121
900
4624
8649
7056
1849
1
441
361
400
729
1225
2025
3481
3844
1936
49
1089
4900
8464
6561
1444
25
441
400
441
784
1296
2209
3481
3600
1444
0
1764
5776
8281
5625
900
121
625
441
484
841
1296
2304
3600
3481
1089
25
2401
6561
8281
4761
441
289
676
484
576
900
1444
2500
3844
3025
784
144
3025
7396
8100
3844
225
289
576
484
625
1024
1521
2916
4225
2916
484
400
3844
7921
7744
2809
49
324
441
441
729
1089
1764
3136
4096
2500
256
676
4356
8281
7396
2304
4
361
400
361
625
1156
1936
3364
4096
2209
169
784
4761
8464
7225
1936
1
400
361
361
676
1225
1936
3364
3969
1936
64
1024
4900
8464
6724
1521
25
441
400
441
784
1296
2116
3481
3600
1521
1
1600
5625
8464
5929
1024
100
576
441
484
784
1296
2304
3721
3364
1156
36
2401
6724
8281
4761
484
256
625
441
529
900
1444
2601
3844
3249
784
144
3025
7396
8100
3721
196
289
576
484
576
1024
1600
3025
4096
2809
441
400
3969
8100
7744
2809
36
324
484
441
625
1089
1681
3136
4096
2500
225
676
4356
8464
7225
2304
4
400
441
400
676
1156
1849
3364
4096
2304
144
841
4624
8281
7056
1936
1
400
361
361
676
1225
1936
3364
3969
1936
64
1024
4900
8464
6724
1521
16
484
400
400
784
1296
2116
3481
3600
1600
1
1521
5625
8281
5929
1024
121
576
441
484
841
1296
2304
3721
3364
1089
36
2401
6724
8281
4761
484
289
676
484
529
841
1369
2601
3969
3136
784
144
3025
7396
8100
3844
196
324
625
441
576
961
1521
2809
3969
2809
484
361
3721
7744
7744
3025
64
361
484
400
676
1089
1681
3136
4096
2601
324
576
4225
8100
7396
2401
9
400
400
400
625
1089
1764
3249
4096
2500
225
676
4489
8464
7396
2116
1
361
361
400
729
1225
1936
3364
4096
2116
100
961
4900
8649
7056
1764
4
484
400
400
784
1296
2116
3364
3721
1681
16
1296
5041
8281
6084
1225
64
484
441
441
784
1225
2209
3600
3481
1369
4
2025
6084
8281
5329
729
169
625
484
529
900
1369
2304
3721
3249
1024
64
2704
7056
8464
4489
324
361
729
484
529
900
1444
2601
3844
3025
676
196
3249
7569
8100
3600
169
324
576
441
625
1024
1600
3025
4356
2809
441
484
3969
7921
7396
2601
25
324
400
400
625
1089
1764
3136
4096
2401
196
729
4489
8281
7225
2116
0
400
400
361
729
1225
1936
3249
3969
2025
81
900
4761
8464
6889
1681
9
441
361
324
676
1156
2025
3364
3844
1936
64
1024
4900
8281
6400
1369
36
484
400
441
784
1296
2116
3364
3364
1444
0
1681
5776
8281
5625
961
121
576
441
441
729
1296
2304
3600
3364
1156
16
2209
6400
8281
4761
441
289
676
484
529
841
1369
2500
3721
3025
729
121
3025
7225
8100
3844
196
324
625
441
529
961
1521
2809
4096
2916
576
289
3600
7921
7921
3025
64
324
484
361
625
1024
1681
3025
4096
2601
289
529
4225
8100
7396
2304
4
400
441
361
625
1089
1849
3249
4096
2304
169
729
4489
8281
7225
2025
0
400
361
361
676
1156
1936
3364
3844
1936
64
961
4761
8281
6724
1600
9
484
400
361
676
1225
2025
3364
3844
1849
36
1156
5041
8100
6241
1225
49
484
400
441
784
1225
2209
3481
3364
1296
1
1849
5929
8100
5329
784
169
676
441
484
784
1296
2304
3600
3249
1024
49
2401
6724
8281
4356
361
324
676
400
441
784
1369
2601
3969
3136
729
169
3136
7569
8100
3600
144
361
576
400
529
900
1521
2809
4096
2809
441
361
3721
7744
7569
2916
49
361
484
400
625
1089
1681
3025
4096
2601
289
576
4225
8100
7396
2304
4
361
361
361
625
1156
1936
3249
4096
2401
169
784
4624
8464
7225
1936
1
400
400
361
676
1156
1936
3364
3844
1849
64
1024
4761
8281
6561
1444
36
484
400
400
729
1296
2116
3481
3600
1444
1
1681
5625
8281
5625
900
144
625
400
441
784
1225
2304
3721
3481
1156
16
2304
6561
8281
4761
484
256
676
484
484
841
1296
2401
3844
3136
784
121
2916
7225
8281
3844
225
361
625
441
529
900
1521
2809
4096
2916
576
289
3600
7744
7921
3136
81
361
484
361
576
1024
1764
3136
4225
2809
361
484
4096
8100
7569
2401
9
361
400
289
576
1024
1764
3249
4096
2500
225
625
4356
8281
7396
2116
1
361
400
324
625
1156
1936
3364
3969
2209
121
841
4624
8281
6889
1849
4
400
361
400
676
1156
2025
3364
3844
1936
64
1024
4761
8100
6400
1369
36
484
361
441
784
1225
2025
3364
3600
1444
0
1764
5929
8281
5476
841
144
625
441
484
841
1296
2304
3721
3364
1089
36
2500
6724
8464
4624
400
324
729
484
484
841
1369
2500
3844
3025
784
144
3025
7396
8281
3844
196
324
625
441
576
961
1444
2809
4096
2916
529
324
3600
7744
7744
2916
64
324
484
400
625
1089
1764
3025
4096
2601
324
529
4096
8100
7569
2500
16
324
361
400
676
1156
1936
3364
4096
2304
169
784
4624
8464
7225
1936
0
400
361
361
676
1225
1936
3364
3969
2025
81
1024
4900
8464
6889
1600
25
484
400
441
784
1296
2025
3481
3600
1600
4
1600
5625
8281
5929
1024
121
625
441
484
841
1296
2304
3600
3364
1089
36
2401
6724
8464
4761
441
256
676
484
576
900
1444
2601
3969
3136
729
169
3136
7396
8281
3844
196
289
576
484
625
1024
1600
2916
4225
2916
441
441
3969
8100
7744
2809
36
361
484
400
676
1089
1764
3136
4225
2601
225
676
4489
8464
7396
2209
1
400
400
400
676
1225
1936
3364
3969
2209
121
900
4761
8464
7056
1849
1
441
361
400
676
1225
2116
3364
3969
1936
49
1156
5041
8464
6561
1444
36
529
441
441
784
1296
2116
3481
3600
1521
0
1764
5929
8464
5776
961
121
576
441
484
841
1296
2304
3721
3364
1156
25
2304
6561
8464
4761
484
256
676
484
484
841
1369
2601
3844
3136
784
144
3025
7396
8281
3969
225
324
576
484
676
1024
1600
2916
4225
2916
484
400
3844
7921
7744
2916
49
324
441
400
676
1156
1849
3136
4096
2601
256
625
4356
8464
7569
2304
4
400
441
441
676
1156
1849
3249
3969
2304
144
841
4761
8464
7225
1936
1
441
400
400
676
1225
2025
3481
3969
2025
64
1089
4900
8281
6561
1521
25
484
441
441
784
1296
2116
3481
3600
1521
0
1681
5776
8464
5929
961
100
576
484
484
841
1369
2304
3600
3481
1156
16
2209
6561
8649
4900
576
256
676
484
576
900
1369
2601
3844
3136
841
144
3025
7396
8281
3969
225
324
576
441
625
961
1521
2809
4096
3025
625
289
3600
7921
8100
3136
100
289
484
441
676
1089
1764
3249
4225
2704
289
625
4225
8281
7396
2401
9
324
361
400
676
1156
1849
3249
4096
2304
169
784
4489
8464
7396
2025
0
400
400
400
676
1225
2025
3481
4096
2116
121
900
4761
8464
7056
1764
9
441
400
400
729
1225
2025
3364
3721
1764
36
1225
5184
8464
6561
1296
49
484
441
484
784
1296
2116
3600
3600
1369
0
1849
5929
8649
5776
900
121
625
484
529
900
1369
2304
3721
3481
1225
25
2500
6889
8649
4900
484
225
676
484
576
1024
1521
2809
4096
3136
676
196
3364
7744
8464
3721
196
289
484
484
676
1089
1681
3136
4356
3025
484
441
3969
8281
8100
2916
64
289
441
484
841
1225
1936
3364
4356
2601
196
841
4900
9025
7744
2401
16
324
484
576
961
1444
2209
3600
4096
2116
64
1225
5476
9216
7225
1849
4
441
529
576
961
1521
2304
3721
3969
1764
9
1521
5929
9216
6724
1444
16
484
529
625
961
1444
2304
3721
3844
1521
0
1936
6400
9025
5929
1024
81
576
529
676
1024
1521
2601
4096
3481
1089
64
2809
7396
8836
4761
484
225
625
576
676
1089
1600
2809
4225
3249
676
225
3600
8100
8464
3721
196
225
484
529
784
1156
1764
3249
4489
3025
400
484
4096
8464
7744
2809
64
256
441
529
841
1225
1849
3249
4225
2500
196
784
4761
8836
7396
2304
4
361
441
484
729
1225
2025
3481
4096
2209
100
900
4900
8836
7225
1936
1
361
400
484
900
1369
2209
3600
3969
1849
25
1369
5476
8836
6724
1444
25
484
441
529
900
1369
2304
3721
3721
1369
1
1936
6241
8649
5625
841
100
529
484
576
1024
1521
2500
3969
3481
1024
49
2809
7396
8836
4489
400
225
625
529
676
1024
1600
2916
4356
3249
676
256
3481
7921
8281
3600
169
256
529
529
729
1156
1764
3136
4489
2809
361
529
4225
8281
7744
2704
36
289
400
441
841
1296
1936
3364
4225
2304
169
900
4900
9025
7569
2209
4
361
400
484
841
1369
2304
3844
4356
2025
49
1225
5476
9025
7056
1681
4
400
400
484
841
1369
2209
3721
3969
1764
9
1600
5776
8649
6241
1225
49
529
484
576
900
1369
2304
3721
3721
1369
4
2116
6400
8649
5476
729
144
576
484
576
961
1444
2601
3969
3364
1024
81
2809
7396
8649
4624
400
225
576
529
729
1089
1600
2916
4225
3025
625
256
3721
7921
8281
3481
169
289
529
529
784
1225
1764
3136
4225
2809
400
484
4225
8649
7921
2809
49
289
441
529
900
1369
1936
3249
4096
2304
144
841
4761
8649
7396
2025
1
361
400
484
841
1369
2116
3481
4096
2025
64
1156
5329
8649
6889
1600
9
400
441
529
900
1369
2209
3481
3844
1681
4
1600
5625
8649
6084
1225
49
529
441
529
900
1369
2304
3721
3721
1369
1
2025
6400
8649
5625
784
144
625
529
576
900
1444
2500
3844
3364
1089
64
2704
7225
8836
4761
484
225
625
529
676
1024
1521
2809
4225
3364
729
256
3600
8100
8464
3721
196
289
529
529
729
1156
1764
3136
4489
2916
400
529
4225
8281
7744
2704
49
289
400
400
729
1225
1936
3364
4356
2401
169
784
4624
8836
7569
2209
1
361
400
441
841
1369
2116
3481
4096
2116
81
1024
5041
8836
7225
1681
4
441
441
484
841
1296
2116
3600
3969
1849
16
1369
5625
8836
6400
1296
36
484
484
576
900
1369
2304
3721
3600
1369
4
2116
6400
8836
5776
900
100
625
529
625
1024
1521
2601
4096
3600
1089
64
2916
7569
9025
4624
441
225
625
529
729
1089
1600
2916
4356
3249
676
324
3844
8281
8281
3249
121
256
441
484
784
1225
1849
3249
4489
2809
289
625
4489
8649
7921
2601
25
289
400
441
841
1296
2116
3481
4225
2209
121
900
4900
8836
7396
2025
0
361
400
441
841
1369
2116
3600
4096
2025
49
1156
5184
8836
7056
1681
9
441
441
529
900
1369
2209
3600
3844
1600
4
1600
5776
8649
6241
1225
64
529
484
529
961
1444
2401
3721
3600
1296
9
2209
6400
8649
5476
784
144
625
484
576
1024
1521
2601
4096
3364
961
100
2916
7396
8649
4356
361
225
576
529
625
1089
1681
3025
4356
3249
576
324
3844
8281
8100
3249
100
289
441
441
676
1156
1849
3249
4356
2601
289
625
4489
8649
7569
2401
9
324
400
400
784
1225
1936
3364
4225
2304
144
841
4761
8649
7396
2025
0
400
400
441
729
1296
2025
3481
3969
2116
81
1089
5041
8649
6889
1600
16
441
400
484
900
1369
2116
3600
3600
1521
0
1764
6084
8836
6084
1089
100
576
484
576
961
1444
2401
3844
3600
1225
25
2500
6889
8649
4900
529
196
576
484
625
1024
1600
2809
4096
3249
729
169
3249
7744
8464
3844
225
256
529
484
676
1089
1764
3249
4356
3025
441
484
4096
8281
7744
2809
49
256
400
441
729
1225
1936
3481
4489
2500
196
784
4624
8649
7569
2209
1
361
400
400
729
1225
2025
3481
4096
2116
121
961
4900
8649
7056
1764
1
400
400
441
784
1369
2116
3481
3844
1764
16
1296
5329
8464
6241
1225
36
484
441
529
841
1296
2304
3721
3600
1369
1
2025
6400
8649
5476
729
144
576
484
576
900
1444
2500
3844
3249
961
64
2601
6889
8464
4624
400
256
676
484
576
900
1444
2601
3969
3249
784
144
3136
7569
8464
3969
256
256
529
484
676
1089
1764
3025
4489
3025
484
441
3969
8281
7921
2916
64
324
441
441
729
1225
1936
3364
4356
2704
256
729
4489
8649
7744
2401
9
324
400
400
729
1225
1936
3364
4096
2304
169
784
4761
8464
7225
2025
0
400
361
400
729
1296
2025
3481
3969
2025
81
1089
4900
8464
6724
1600
16
441
400
484
841
1225
2116
3364
3721
1600
4
1600
5776
8649
6084
1089
81
576
484
529
900
1369
2304
3721
3600
1296
9
2209
6561
8649
5184
676
169
625
484
576
900
1444
2601
3969
3364
961
64
2704
7056
8649
4624
400
256
676
484
576
900
1444
2704
4096
3136
729
196
3249
7744
8281
3600
196
256
484
441
676
1089
1600
3025
4356
2916
441
441
3969
8100
7744
2809
36
324
400
361
676
1156
1849
3249
4225
2601
256
676
4356
8281
7396
2209
4
324
361
361
729
1156
1849
3136
3969
2116
121
841
4489
8464
7056
1849
1
400
361
400
729
1225
2025
3364
3844
1849
64
1089
4900
8281
6561
1444
36
529
441
484
784
1225
2116
3481
3600
1521
0
1764
5929
8464
5929
961
100
576
441
484
900
1369
2304
3721
3481
1296
9
2116
6400
8464
5184
625
196
625
441
529
900
1369
2304
3721
3249
961
64
2500
6889
8281
4624
441
256
625
441
576
900
1444
2500
3844
3025
729
169
3249
7569
8100
3600
144
361
576
484
625
1024
1600
2916
4225
2916
484
400
3969
7921
7744
2809
49
289
400
441
676
1156
1849
3249
4096
2601
256
625
4225
8100
7225
2116
1
324
324
324
625
1156
1936
3364
4096
2116
121
900
4761
8464
6889
1764
4
400
400
400
784
1225
2025
3364
3844
1849
49
1156
5041
8464
6561
1444
36
484
400
441
784
1296
2116
3600
3721
1521
0
1681
5776
8464
5776
961
121
576
441
529
900
1369
2304
3721
3364
1156
25
2401
6889
8464
4900
484
256
676
484
576
961
1444
2704
3844
3025
784
144
3025
7396
8100
3844
225
289
576
441
625
1024
1521
2809
4096
2916
484
361
3844
7921
7744
2809
49
324
441
400
676
1089
1764
3136
4225
2601
256
576
4225
8281
7396
2401
9
361
400
400
625
1089
1849
3249
4096
2304
169
784
4489
8464
7225
1936
0
400
361
400
676
1225
2116
3364
3969
1936
64
1089
4900
8464
6724
1444
16
484
400
441
784
1296
2209
3481
3600
1444
0
1764
5929
8281
5776
900
121
576
441
484
841
1369
2401
3721
3481
1156
16
2304
6561
8464
4761
484
225
625
484
576
900
1369
2500
3721
3025
784
144
2916
7225
8100
3844
225
289
576
441
625
961
1521
2809
4096
3025
529
289
3721
7744
7744
3136
81
324
529
441
625
1089
1681
3025
4225
2704
324
529
3969
8100
7569
2500
25
361
400
400
625
1156
1936
3249
4096
2304
169
784
4624
8464
7225
2025
1
400
361
361
676
1225
2025
3364
3969
2025
81
961
4761
8464
6724
1681
9
400
361
400
729
1296
2025
3481
3721
1764
36
1225
5041
8100
6241
1225
49
529
400
441
784
1225
2116
3481
3600
1296
4
2025
6241
8464
5329
784
169
625
484
529
841
1369
2500
3721
3364
1024
64
2704
7056
8281
4356
324
289
625
441
529
900
1444
2704
4096
3136
676
196
3136
7569
8100
3600
169
289
529
441
625
1024
1681
3136
4225
2809
400
441
3969
7921
7569
2704
36
324
400
400
625
1089
1764
3136
4096
2401
225
676
4356
8281
7225
2116
1
324
361
400
729
1225
1849
3249
3969
2116
100
900
4761
8281
6889
1764
9
400
361
324
676
1225
2025
3481
3844
1849
36
1089
5041
8281
6241
1296
49
484
361
441
784
1225
2116
3481
3481
1369
1
1849
6084
8464
5476
841
144
625
484
484
841
1369
2304
3721
3364
1089
49
2500
6561
8100
4489
400
256
625
400
484
841
1444
2601
3969
3136
784
144
3025
7396
8281
3844
225
324
576
441
625
961
1600
2916
4096
2916
529
324
3600
7921
7921
3136
64
324
441
361
625
1089
1681
3136
4096
2601
324
576
4096
7921
7396
2500
16
400
400
400
676
1156
1849
3249
3969
2304
169
784
4489
8464
7225
2025
1
400
400
361
676
1156
2025
3249
3969
2116
81
961
4761
8281
6724
1681
4
441
400
400
729
1225
2025
3364
3844
1936
49
1156
5041
8464
6400
1369
36
529
400
441
784
1296
2116
3481
3481
1296
4
1936
6084
8464
5625
784
169
676
484
484
841
1369
2401
3721
3364
1089
49
2500
6724
8464
4489
400
289
676
484
484
841
1369
2500
3721
3025
729
121
2916
7225
7921
3721
196
289
529
400
576
900
1521
2916
4096
3025
576
289
3600
7921
7921
3136
64
324
484
400
625
1089
1681
3025
4096
2601
324
576
4096
8100
7396
2401
9
361
400
324
625
1156
1849
3136
4096
2401
225
729
4356
8281
7396
2116
1
361
361
361
676
1225
1936
3364
3969
2209
121
900
4624
8100
6724
1764
4
400
324
324
676
1225
2025
3481
3844
1849
36
1089
5041
8464
6400
1369
49
484
400
400
729
1296
2116
3600
3600
1369
0
1764
5776
8100
5625
841
144
625
441
484
841
1369
2304
3600
3364
1089
36
2401
6724
8281
4624
400
289
625
400
484
841
1369
2500
3721
3136
729
144
2916
7056
7744
3721
196
324
529
361
529
900
1444
2809
4096
3025
576
289
3481
7744
7921
3249
100
324
441
441
676
1089
1764
3136
4225
2500
256
676
4225
8100
7396
2209
1
400
361
361
625
1089
1764
3249
4096
2304
196
784
4489
8281
7056
1936
0
400
361
324
625
1156
1936
3364
3969
2116
81
961
4624
8281
6889
1681
9
441
400
400
676
1156
2025
3364
3721
1764
36
1089
4900
8281
6241
1296
49
484
361
400
784
1225
2209
3481
3481
1444
0
1764
5776
8464
5625
841
144
625
484
484
841
1296
2304
3600
3249
1089
25
2304
6561
8281
4761
484
256
676
441
484
900
1444
2601
3844
3136
841
121
2916
7225
8100
3969
225
289
576
441
576
900
1444
2704
4096
3025
625
256
3481
7744
7921
3136
81
324
441
361
576
1024
1681
3025
4096
2704
324
529
3969
7921
7225
2500
16
324
400
400
625
1089
1764
3136
4096
2304
169
729
4356
8281
7225
2025
1
400
400
361
676
1156
1849
3249
3969
2025
81
961
4624
8281
6724
1681
9
441
361
324
676
1225
1936
3364
3721
1849
49
1089
4900
8281
6241
1225
64
529
361
400
729
1225
2116
3481
3364
1296
4
1936
6084
8281
5184
676
196
625
441
484
841
1296
2304
3721
3249
1024
36
2500
6724
8281
4356
361
289
676
400
441
784
1296
2500
3844
3025
784
144
2916
7225
7921
3600
144
361
529
400
529
961
1521
2704
3969
2809
484
361
3600
7744
7569
2809
49
324
441
400
625
1024
1600
3025
4225
2704
289
576
4096
8100
7396
2304
9
361
361
361
625
1089
1849
3249
4096
2304
169
784
4356
8100
7056
1936
0
361
361
324
676
1156
1936
3364
3844
2025
100
900
4761
8281
6724
1521
16
441
361
361
729
1156
2025
3481
3844
1764
16
1369
5329
8281
5929
1089
81
529
361
441
784
1225
2116
3481
3364
1225
9
2025
5929
8281
5041
625
225
729
484
441
784
1296
2304
3600
3249
961
64
2500
6724
8281
4356
324
361
729
441
484
841
1369
2401
3844
2916
729
169
3025
7225
8100
3600
169
361
529
361
484
900
1521
2916
4096
2916
529
324
3600
7744
7569
2916
49
361
484
361
576
1024
1600
3025
4096
2601
324
529
4096
7921
7225
2401
9
361
361
324
625
1089
1849
3249
4096
2401
196
729
4356
8100
6889
1936
0
400
324
324
625
1156
1936
3249
3844
2025
100
900
4624
8100
6724
1521
16
484
361
361
729
1156
1936
3249
3481
1521
9
1296
5041
7921
5929
1089
81
576
400
400
729
1156
2116
3364
3364
1296
1
1849
5625
7921
5184
676
196
676
441
441
784
1296
2209
3481
3136
1089
36
2401
6561
8100
4489
361
324
676
400
484
841
1444
2500
3844
2916
676
196
3136
7225
8100
3600
169
324
576
441
529
961
1521
2809
3969
2809
529
324
3481
7396
7569
2809
49
324
400
361
576
1024
1681
2916
3969
2601
289
576
4096
7921
7056
2304
4
361
400
324
625
1089
1764
3136
3969
2304
196
729
4225
8100
6889
1936
0
400
324
324
676
1156
1849
3249
3844
2116
121
900
4489
8100
6561
1600
9
400
324
361
676
1156
2025
3249
3600
1681
25
1225
4900
7921
6084
1156
81
484
361
361
729
1225
2116
3481
3249
1225
9
2025
5929
7921
5041
625
196
676
441
441
841
1369
2401
3721
3136
961
49
2401
6561
8100
4489
400
324
625
400
441
784
1296
2500
3721
3025
784
121
2809
7056
7921
3721
169
361
625
441
576
900
1444
2704
3844
2704
484
324
3600
7569
7396
2809
64
361
441
361
576
1024
1600
3025
4096
2601
324
484
3969
7744
7225
2304
4
361
324
289
576
1024
1681
3136
4096
2401
196
729
4356
8100
6724
1849
0
400
289
289
625
1089
1936
3249
3844
2025
121
900
4624
8100
6400
1521
16
441
324
361
676
1296
2116
3364
3481
1600
9
1444
5184
7921
5929
1089
100
529
361
400
729
1296
2209
3481
3364
1225
9
2025
6084
8100
4761
529
289
729
400
400
729
1296
2401
3600
3025
900
81
2401
6561
7921
4225
289
361
729
441
484
729
1296
2401
3721
2916
625
169
3025
7056
7569
3481
121
324
576
400
576
900
1521
2704
3844
2704
484
361
3600
7569
7396
2704
36
324
441
324
529
1024
1681
3025
3969
2500
289
529
3969
7569
7056
2209
4
324
324
289
576
1024
1764
3136
3844
2209
169
729
4225
7921
6889
1764
1
441
324
324
625
1225
1936
3136
3721
1936
81
900
4489
7744
6400
1521
16
441
324
289
625
1156
2025
3364
3600
1600
16
1225
4900
8100
5929
1024
100
529
400
400
729
1225
2116
3364
3249
1156
16
2116
6241
8100
4624
400
289
676
400
441
841
1369
2401
3600
3025
784
144
2809
7056
7921
3844
196
361
676
400
484
841
1369
2601
3721
2809
529
256
3249
7056
7396
2916
49
361
484
324
484
900
1444
2704
3844
2601
441
400
3721
7569
7225
2401
9
400
400
324
529
961
1600
2809
3844
