1156
1600
1681
1089
196
196
1936
4225
4624
2601
961
400
121
1
100
324
625
1369
2116
1764
576
0
625
2025
2209
961
144
4
0
25
144
289
361
729
1225
1156
361
4
729
1936
2209
1089
81
49
225
400
576
576
576
784
1156
961
225
81
1225
3025
3600
1849
289
4
169
441
784
1089
1225
1681
2116
1600
441
36
1296
3364
4225
2704
841
64
9
196
576
900
1296
1849
2601
2209
961
25
729
2916
4096
2601
784
81
1
64
225
484
841
1369
2116
2116
1024
49
441
2025
2916
2116
625
25
4
64
196
400
576
900
1681
1764
784
16
441
1849
2809
2025
576
16
36
100
256
484
676
961
1296
1444
841
49
324
1936
3249
2500
784
36
25
100
289
576
841
1296
1849
1849
841
36
361
1936
3249
2809
961
100
9
100
289
576
841
1089
1681
1936
1024
49
361
1764
3136
2601
900
100
0
49
225
529
784
1225
1764
2025
1156
144
196
1681
3364
3025
1156
144
0
81
289
576
784
1089
1681
1936
1156
144
225
1681
3364
3025
1156
144
1
64
196
400
676
1089
1764
2116
1156
144
144
1444
2809
2704
1089
169
0
64
196
324
576
961
1681
2116
1296
169
256
1681
2916
2500
900
81
4
64
256
484
625
900
1369
1681
900
81
196
1521
2809
2601
1024
100
9
100
324
625
784
961
1444
1764
1024
81
256
1600
3249
3249
1369
196
4
121
361
676
961
1296
1764
2025
1156
144
196
1600
3364
3364
1444
225
0
100
256
400
576
961
1849
2401
1600
256
121
1521
3136
2916
1156
196
1
25
144
400
625
1024
1681
2025
1089
100
225
1369
2601
2304
784
49
9
64
169
441
676
676
900
1156
841
144
81
1024
2304
2401
1024
100
9
100
256
441
625
841
1156
1521
961
144
144
1369
2916
2916
1225
144
4
81
225
529
784
900
1369
1849
1369
289
81
1156
2809
3249
1849
324
1
49
225
529
784
961
1444
1936
1444
361
36
1089
2704
3025
1521
289
9
16
100
324
625
961
1521
2025
1521
361
25
1024
2704
2916
1521
256
1
25
144
400
676
900
1296
1764
1369
400
25
1024
2500
2809
1444
256
0
49
81
196
441
784
1444
1936
1521
484
9
841
2500
3136
1764
361
4
36
144
361
529
729
1225
1849
1681
625
0
676
2304
3025
1936
484
9
25
121
289
529
784
1225
1681
1521
676
9
484
2116
3136
2304
625
25
36
144
361
529
729
1024
1600
1764
841
36
400
1936
3249
2601
841
81
4
121
361
576
841
1156
1681
1764
900
64
256
1600
3136
2809
1089
121
1
81
256
484
729
1024
1521
1764
1089
144
144
1444
3025
2809
1024
121
1
49
196
400
676
1024
1681
1849
1024
100
225
1521
2916
2601
900
64
9
100
256
441
484
676
1156
1681
1225
256
121
1600
3249
2809
1024
49
25
81
196
441
784
1225
1521
1681
1156
196
324
2304
3721
2809
784
16
25
100
256
529
729
1024
1521
1681
961
100
196
1521
3025
2809
961
81
4
100
289
529
676
841
1296
1600
1024
121
144
1296
2809
2401
1024
196
16
25
256
576
841
1089
1764
1936
1024
64
361
1849
3025
2500
784
49
4
81
225
441
676
1024
1600
1849
1089
144
144
1600
3249
2704
900
81
1
64
225
441
625
961
1600
1936
1089
121
196
1369
2916
2601
1089
121
0
49
225
484
676
841
1296
1764
1156
196
100
1296
2916
2916
1296
196
0
49
225
529
784
961
1369
1764
1156
225
81
1225
2916
3025
1369
196
0
49
225
529
784
961
1369
1764
1089
196
121
1296
2704
2601
1024
144
1
16
169
441
729
961
1444
1849
1296
256
121
1444
3025
2916
1296
169
1
100
256
484
676
900
1600
2116
1156
121
225
1600
3025
2601
900
100
0
36
169
400
625
900
1444
1849
1225
225
81
1225
2704
2809
1225
121
1
49
144
361
625
900
1444
1849
1296
225
100
1296
2916
2916
1225
144
0
36
169
441
729
961
1444
1681
1156
196
100
1156
2704
2809
1225
144
0
25
144
441
676
961
1521
2025
1296
225
100
1296
2809
2704
1296
225
4
16
196
529
900
1089
1444
1681
1089
169
121
1369
2916
2704
1156
121
1
49
144
361
625
961
1600
1936
1156
169
144
1296
2809
2704
1089
121
1
64
144
324
529
900
1600
2025
1296
196
121
1296
2704
2601
1089
225
9
16
169
484
784
1024
1600
1936
1296
196
169
1521
3025
2704
1024
100
1
49
196
400
625
900
1369
1849
1156
196
100
1296
2916
2809
1225
169
1
64
169
361
576
900
1521
1936
1296
225
81
1156
2704
2916
1369
256
1
49
256
576
729
900
1444
1849
1296
225
81
1225
2809
2809
1296
196
0
64
196
441
625
900
1521
1936
1296
225
121
1369
2916
2916
1296
169
1
64
225
484
676
784
1225
1764
1369
289
100
1296
2809
2916
1296
169
0
49
169
361
625
961
1521
2116
1521
361
100
1521
3136
3136
1444
196
0
49
196
441
729
1024
1521
1936
1225
225
100
1296
2809
3025
1296
169
4
100
169
324
576
961
1600
2025
1296
196
121
1369
3025
3136
1369
144
4
81
225
441
676
1024
1521
2025
1225
196
144
1444
3025
2916
1225
169
0
64
256
529
729
961
1521
2025
1296
144
196
1521
3136
3025
1225
144
1
81
256
484
729
1089
1764
1936
1024
121
169
1369
3025
2809
1156
144
1
81
225
441
625
961
1521
1936
1156
169
169
1444
3025
2809
1089
144
0
64
225
484
676
961
1600
2025
1225
144
169
1444
2916
3025
1296
196
0
64
256
576
841
1024
1444
1681
1089
225
121
1444
3025
2916
1156
121
9
81
196
400
676
1024
1681
2025
1156
144
144
1444
2916
2601
1089
169
1
36
225
484
784
1225
1764
1764
900
81
225
1521
2916
2601
1089
121
4
81
256
529
729
841
1296
1681
1156
169
121
1369
3025
2809
1156
121
0
64
256
529
729
1024
1600
1936
1089
100
196
1521
3025
2916
1225
121
1
49
144
400
676
1089
1764
2209
1296
169
196
1521
3136
3025
1225
144
0
64
256
576
784
1089
1764
2025
1156
121
196
1681
3481
3136
1225
144
4
100
289
576
841
1156
1764
2116
1225
64
441
2116
3481
2704
900
49
9
81
225
484
676
961
1681
2116
1369
196
196
1764
3481
3025
1089
100
9
64
196
441
729
1156
1764
2116
1156
121
225
1764
3481
3249
1369
169
1
121
324
625
900
1296
2025
2025
1024
49
400
1936
3481
3025
1089
100
1
81
289
576
900
1444
2025
2209
1156
121
324
2025
3844
3249
1156
100
9
169
324
529
784
1156
1936
2025
1024
49
441
2116
3481
2704
900
100
1
121
400
676
841
1156
1936
2116
1089
64
441
2209
3721
2916
961
100
4
121
441
784
841
1156
1849
2025
1024
49
441
2209
3721
2916
961
36
16
64
225
576
900
1369
2025
2209
1156
121
289
2025
3969
3364
1156
121
9
121
400
625
784
1225
2025
2209
1089
36
529
2401
3721
3025
1024
49
16
121
289
625
961
1444
2209
2304
1024
36
625
2601
4096
3025
961
64
16
169
400
729
961
1296
2116
2304
1024
25
576
2401
3844
3136
1024
64
25
169
441
676
841
1296
2025
2116
1024
49
400
2601
4489
3364
900
36
36
144
400
676
900
1296
2025
2025
1024
36
529
2500
3844
2916
900
36
25
144
324
576
900
1369
2116
2209
1024
49
529
2500
3844
3136
1024
121
9
144
400
729
961
1369
2025
2209
1156
36
676
2809
4096
2916
841
49
16
144
361
625
841
1296
2116
2209
1089
36
625
2601
3844
2809
729
25
9
81
225
529
841
1296
2116
2304
1156
81
400
2209
3844
3136
1024
81
25
144
324
576
900
1296
2116
2116
961
25
576
2500
3969
3136
961
64
16
121
361
729
961
1369
2209
2304
1024
49
484
2601
4225
3249
961
49
16
144
400
676
900
1296
2025
2116
1024
49
441
2025
3364
3025
1225
169
4
121
361
676
961
1521
2209
2116
1024
49
576
2500
4225
3249
1089
81
9
196
484
784
841
1156
1936
2209
1156
64
441
2209
3721
3025
1089
144
1
144
400
676
900
1369
2209
2304
1225
64
529
2704
4096
3136
961
81
16
100
289
576
900
1369
2116
2209
1156
64
484
2601
4225
3136
900
36
16
100
289
625
961
1444
2209
2304
1089
49
484
2601
4225
3249
1024
49
36
144
361
625
961
1521
2304
2116
961
25
529
2500
3969
3136
1024
64
36
169
361
529
784
1369
2209
2304
1089
36
625
2704
4096
3025
961
49
25
169
484
729
841
1156
1936
2209
1089
49
576
2500
3969
2916
900
64
16
121
400
676
900
1296
2025
2209
1089
49
529
2209
3600
3025
1156
169
0
121
400
729
961
1369
2116
2209
1089
36
625
2704
3969
2809
841
64
1
64
324
676
1024
1521
2304
2401
1089
25
625
2601
3969
2916
900
81
9
100
324
676
961
1444
2209
2304
1156
49
529
2401
3969
3249
1156
81
16
196
400
625
900
1369
2209
2304
1089
36
625
2809
4624
3481
1024
36
36
169
484
900
1156
1764
2809
2916
1296
16
1024
4225
6724
5041
1521
25
144
400
729
1089
1369
2304
3600
3364
1296
4
1936
5776
7056
4096
784
0
169
400
784
1225
1600
2500
3721
3025
961
49
2209
5929
7225
4624
1024
1
225
625
1089
1444
1849
2916
4096
3136
729
100
2500
6561
7744
4225
900
4
169
625
1156
1369
1764
3249
4624
3249
625
225
3249
7225
7569
3600
576
1
196
529
961
1369
1849
3249
4356
3025
529
256
3249
7056
7056
3025
441
0
144
529
1024
1444
2025
3364
4225
2601
324
441
3721
7396
6889
2704
256
36
225
625
1089
1521
2209
3600
3844
1936
81
1024
4761
7921
6084
1849
81
100
400
841
1156
1521
2601
3969
3721
1369
0
1764
5776
7921
5184
1296
9
196
484
900
1225
1681
2704
4096
3600
1225
9
2209
6241
7921
4761
1024
1
169
484
961
1296
1681
2704
4225
3364
961
64
2500
6561
7744
4489
961
0
225
576
1024
1369
1764
2916
4225
3249
729
144
2916
6889
7569
3844
625
4
289
625
1089
1444
1936
3136
4225
2916
625
289
3600
7921
7744
3481
441
16
289
625
1089
1444
2025
3481
4356
2601
361
441
3721
7569
7056
3025
324
16
289
729
1156
1369
2025
3481
3969
2116
121
841
4489
7744
6241
2025
81
100
400
784
1156
1600
2401
3844
3600
1521
1
1521
5476
7569
5184
1369
25
121
441
841
1225
1681
2601
4096
3600
1296
9
2116
5929
7744
4900
1156
4
196
529
961
1369
1764
2704
3969
3364
1024
64
2601
6561
7396
3844
729
0
196
529
1024
1369
1764
3025
4225
3136
676
169
3025
7056
7396
3721
576
1
225
625
1156
1444
1936
3136
3969
2601
441
324
3364
7396
7225
3136
361
16
289
676
1156
1521
2116
3481
4096
2304
225
625
4096
7744
7225
2809
225
49
361
784
1156
1600
2209
3481
3844
2025
100
1089
4900
7921
5776
1600
49
121
400
784
1156
1600
2500
4096
3721
1369
4
2116
6084
7744
4761
1089
1
196
529
961
1369
1521
2304
3721
3364
1156
16
2304
6400
7569
4225
784
0
196
484
841
1369
1849
2916
3969
3025
841
100
2704
7056
7744
4096
676
9
324
625
961
1296
1936
3025
3721
2809
676
121
3025
7396
7744
3969
625
1
225
625
1156
1681
2209
3364
4096
2704
441
289
3364
7744
7744
3364
400
25
441
961
1225
1369
1849
3136
3844
2209
196
676
4096
7744
6561
2304
121
100
361
625
1024
1444
2401
3844
3844
1600
16
1444
5329
7744
5476
1444
25
144
529
900
1225
1521
2601
3969
3600
1225
9
2116
6241
7744
4624
961
0
256
576
841
1089
1521
2704
4096
3364
1024
49
2500
6561
7396
3844
576
0
64
289
784
1369
1849
2916
4225
3364
961
64
2601
6724
7569
4225
900
0
225
625
1089
1444
1936
3136
4356
3136
676
169
3136
7225
7396
3481
576
1
169
576
1156
1521
1936
3136
4225
2916
576
256
3249
7569
7396
3249
400
9
256
625
1156
1444
1764
3136
4096
2601
324
484
3969
7744
7056
2601
196
49
324
729
1024
1444
2116
3481
3721
1849
64
1024
4900
7569
5776
1849
81
121
484
961
1225
1521
2500
3721
3364
1225
4
1849
5776
7744
5041
1156
1
256
676
1089
1521
1681
2704
3969
3249
841
81
2500
6400
7744
4489
900
4
169
484
961
1369
1764
3025
4356
3364
841
81
2601
6724
7744
4096
729
1
225
576
961
1296
1764
3025
4356
3136
784
144
2916
7225
8100
4225
676
1
256
676
1156
1600
1936
2916
3969
2916
676
196
3249
7569
7744
3364
441
4
169
529
1024
1444
2116
3481
4356
2704
400
400
3721
7744
7396
2916
256
36
324
676
1089
1444
2209
3364
3844
2025
121
841
4356
7396
6241
2116
144
81
441
841
1225
1521
2401
3600
3481
1521
9
1369
5184
7744
5929
1764
49
121
529
1024
1444
1849
2916
4096
3600
1156
16
2401
6724
7921
4624
841
1
225
484
900
1296
1681
2916
4225
3481
961
100
2704
6889
7921
4225
784
0
225
576
1024
1444
1849
3136
4356
3249
729
196
3249
7396
7569
3600
529
4
225
576
1024
1444
2025
3364
4225
2809
484
361
3600
7569
7569
3249
361
25
361
729
1089
1369
2116
3364
3969
2209
196
625
4225
7921
6889
2401
144
81
400
784
1225
1444
2209
3481
3600
1681
36
1225
5041
7744
5476
1521
36
100
400
784
1089
1444
2500
4225
4096
1600
4
1764
6084
8464
5625
1521
36
144
484
961
1369
1764
2916
4489
3844
1296
9
2304
6561
8100
5184
1369
36
144
576
1089
1600
2209
3600
4900
3844
961
81
2916
7744
8649
4624
900
4
169
529
1024
1521
2116
3721
5184
3600
729
225
3481
8100
8464
3969
625
0
144
529
1024
1521
2304
3844
5041
3249
576
256
3481
7744
8100
3844
576
0
169
625
1225
1764
2401
3721
4489
2704
289
625
4489
8464
7396
2704
225
36
324
784
1225
1681
2500
4096
4356
2116
64
1296
5476
8464
6084
1681
49
100
361
784
1156
1681
2916
4489
4225
1600
0
2116
6561
8464
5329
1369
49
64
361
961
1600
2304
3969
5184
3600
961
49
2500
6889
8464
5041
1089
9
169
529
1024
1444
2116
3481
4761
3600
841
121
3025
7569
8281
4225
729
0
169
529
1024
1444
2209
3721
5041
3481
729
256
3600
8100
8281
3844
576
0
169
529
1089
1600
2500
4096
4761
2601
324
441
3844
8100
7569
3025
400
0
169
625
1225
1681
2500
4096
4761
2809
289
676
4624
8649
7569
2809
225
36
324
784
1225
1764
2809
4356
4356
2025
25
1521
6084
8836
6241
1764
81
100
484
961
1369
1849
3136
4761
3969
1369
1
2209
6889
8281
5184
1156
9
144
484
841
1296
1849
3249
4900
4096
1296
25
2601
7396
8464
4900
1089
9
144
484
1024
1444
2116
3721
5184
3844
784
225
3481
8100
8464
3969
625
0
169
529
1024
1521
2401
3969
4624
3025
529
289
3600
8281
8100
3364
400
9
196
576
1089
1681
2500
4096
4761
2704
289
676
4489
8649
7569
2809
256
25
256
729
1156
1600
2601
4356
4761
2304
64
1444
5929
8649
6241
1849
64
100
400
900
1444
1849
2809
4096
3969
1681
1
1849
6241
8464
5476
1444
49
100
441
961
1521
2025
3364
4761
3969
1296
25
2601
7396
8464
4761
961
4
121
484
1024
1444
1936
3249
4624
3600
961
100
3025
7569
8464
4356
729
0
169
576
1024
1444
2209
3721
5041
3481
729
225
3721
8464
8464
3844
576
1
225
625
1156
1600
2401
3969
4900
3025
441
441
3969
8464
8100
3249
400
9
289
676
1024
1444
2304
3969
4900
2809
256
729
4624
8464
7225
2704
256
36
324
784
1225
1681
2500
4225
4356
2025
49
1444
5776
8649
6084
1681
64
81
361
784
1225
1849
3025
4624
4356
1681
1
2025
6724
8836
5476
1296
16
144
484
1024
1369
1936
3364
4900
3969
1156
64
2809
7225
8464
4624
961
9
144
484
1089
1600
2209
3481
4624
3364
784
144
3025
7396
8464
4225
729
1
169
576
1156
1600
2209
3721
4900
3364
576
324
3844
8464
8281
3721
484
4
225
576
1089
1521
2401
3969
5041
2916
361
529
4356
8649
7744
3025
324
16
256
625
1225
1764
2601
4225
4489
2304
121
961
5184
8836
6889
2209
100
64
324
784
1296
1849
2916
4761
4489
1681
0
2209
6561
8649
5476
1369
25
144
529
961
1369
1849
3249
4761
4096
1369
16
2500
6889
8281
5041
1225
25
144
576
1089
1521
2116
3481
4761
3600
841
144
3136
7569
8464
4225
729
0
144
529
1089
1600
2401
3844
4761
3025
529
324
3721
8281
8100
3364
441
1
196
576
1156
1681
2500
4096
5041
2916
324
625
4489
8649
7744
2916
256
25
225
576
1156
1681
2704
4489
4761
2304
100
1156
5329
8649
6724
2116
121
81
400
784
1225
1764
3136
4761
4356
1600
0
2025
6724
8649
5476
1444
36
100
441
961
1521
2116
3481
4761
3844
1156
36
2601
7225
8281
4489
961
4
144
529
1024
1521
1849
3136
4761
3721
961
100
3025
7744
8464
4225
729
1
144
441
961
1521
2209
3844
5041
3481
729
256
3600
8100
8464
3844
576
1
225
676
1089
1600
2304
3844
4900
3136
484
400
3844
8281
8100
3481
441
4
256
676
1156
1600
2401
4225
5041
2809
169
961
5041
8649
7056
2500
196
49
361
841
1225
1681
2500
4225
4489
2116
64
1296
5625
8649
6241
1764
81
64
361
784
1225
1681
2809
4489
4225
1681
1
2025
6561
8649
5476
1369
25
144
529
961
1444
1936
3249
4900
4096
1296
25
2601
7225
8649
5041
1089
9
144
529
1024
1444
2116
3600
5184
3844
961
100
2916
7569
9216
5184
1089
4
169
625
1225
1681
2500
4096
5041
3249
529
361
3969
8464
8100
3364
441
9
225
576
1089
1600
2500
3969
4624
2704
289
625
4356
8281
7569
3025
324
16
289
729
1296
1681
2704
4225
4624
2116
81
1225
5329
8649
6400
1936
100
64
361
784
1296
1681
2809
4489
4225
1764
1
2025
6724
8649
5329
1225
25
81
361
841
1369
1936
3364
4900
4096
1296
16
2500
6889
8464
4900
1156
16
144
529
1024
1369
2025
3600
5041
3844
961
144
3136
7744
8464
4356
784
4
144
529
1024
1600
2401
3969
5041
3249
576
289
3600
8100
8281
3721
576
0
169
576
1156
1681
2500
4096
4900
3025
484
400
4225
8836
8100
3364
400
25
289
729
1156
1600
2401
4096
4489
2401
121
1024
5329
8649
6561
2116
121
64
361
784
1225
1764
2916
4761
4489
1681
1
2025
6400
8649
5625
1444
36
121
484
961
1444
1849
3136
4761
4096
1444
9
2401
6889
8100
4900
1296
64
81
441
1089
1521
2209
3600
4900
3844
961
100
3025
7744
8464
4356
784
1
169
529
1089
1600
2209
3721
4900
3364
729
225
3481
8281
8836
4096
625
0
225
625
1089
1600
2401
3969
4900
3136
441
484
4225
8649
8100
3249
361
25
324
784
1024
1296
2304
4225
4900
2704
169
961
5184
8649
6889
2209
196
49
324
784
1296
1681
2704
4489
4489
1936
16
1681
6084
8464
5625
1521
49
100
484
900
1296
1764
3025
4624
3969
1369
9
2401
6889
8464
5041
1156
16
144
529
1024
1444
2116
3600
4761
3600
900
100
3025
7921
8649
4356
729
0
196
529
1024
1521
2304
3721
5041
3481
676
225
3481
8464
9025
4096
625
1
196
576
1089
1600
2401
4096
5041
3136
441
441
4096
8281
7744
3249
400
4
225
625
1156
1600
2601
4096
4624
2500
169
841
4761
8649
7056
2401
144
81
361
625
961
1521
2601
4489
4624
2209
64
1296
5625
8649
6400
1936
100
100
400
900
1369
1849
3136
4624
4096
1444
9
2209
6724
8464
5184
1296
25
121
441
961
1521
1936
3481
5041
3969
1156
64
2916
7569
8464
4356
841
1
144
484
961
1369
1936
3249
4624
3721
1024
144
3364
8100
8100
3721
484
4
256
625
1024
1444
2116
3481
4225
2500
361
484
3844
7744
7225
2916
324
25
324
841
1156
1444
2116
3600
4096
2116
144
784
4356
7744
6400
2116
100
81
361
729
1089
1369
2209
3721
3721
1600
9
1444
5329
7569
5184
1444
16
169
484
841
1156
1521
2500
3969
3481
1156
25
2304
6241
7396
4489
900
0
256
576
1089
1369
1764
2704
3721
3025
841
64
2401
6400
7569
4356
841
0
196
529
1024
1444
1936
3136
4356
3249
729
225
3364
7396
7569
3481
529
1
225
529
1024
1369
2025
3364
4356
3025
529
289
3364
7396
7225
3249
441
9
225
576
1024
1444
2025
3249
3969
2304
256
484
3600
7396
6724
2704
225
36
289
729
1024
1369
2209
3481
3844
1936
100
841
4624
7744
6241
1936
64
121
441
841
1225
1521
2401
3844
3721
1444
0
1849
5929
7921
5041
1225
4
196
529
900
1296
1681
2601
3844
3364
1089
16
2209
6241
7569
4489
900
0
196
529
1024
1369
1764
2809
3969
3136
841
81
2704
6561
7569
4096
729
0
225
576
1024
1444
1764
2916
4096
3136
729
169
2916
6889
7396
3600
576
1
196
529
961
1369
1936
3249
4356
2809
484
289
3364
7569
7396
3249
400
16
289
625
1024
1369
2025
3481
4225
2500
289
529
3969
7569
6889
2601
225
25
256
625
1089
1521
2209
3600
3844
1936
100
961
4624
7744
5929
1849
64
100
400
841
1225
1600
2601
3844
3481
1225
0
1764
5625
7744
5184
1225
4
169
529
900
1225
1600
2601
3844
3364
1156
4
2025
6084
7569
4624
1024
1
196
484
900
1225
1764
2809
4096
3481
1024
49
2601
7056
7921
4096
729
1
225
576
1024
1369
1600
2704
4096
3249
841
81
2704
6724
7569
3721
676
1
100
400
841
1296
1849
3249
4489
3249
625
196
3025
6889
7056
3364
484
4
256
576
961
1225
1849
3136
4225
2809
529
225
3025
7225
7744
3600
441
9
256
625
1024
1444
2116
3481
4096
2401
289
441
3721
7569
6889
2704
256
36
324
676
1089
1444
2116
3481
3721
1936
100
961
4489
7569
6084
1936
100
100
400
784
1156
1444
2401
3844
3600
1369
0
1936
5929
7396
4624
1024
4
169
400
841
1225
1600
2704
3969
3249
1024
25
2116
6084
7225
4225
900
0
225
529
900
1225
1600
2704
3969
3136
961
64
2601
6561
7396
4096
729
0
225
529
961
1296
1681
2809
4096
3136
729
121
2809
6889
7396
3600
576
1
196
529
961
1369
1764
3025
4225
3025
625
196
3136
7225
7396
3136
361
1
81
400
961
1521
2025
3136
4225
2916
529
256
3249
7056
7225
3249
441
9
196
484
900
1296
1936
3249
4225
2704
400
361
3481
7396
7056
2809
289
36
289
676
1024
1296
2025
3364
3844
2116
144
729
4225
7569
6241
2025
100
81
361
729
1156
1521
2401
3844
3721
1444
1
1444
5041
7396
5184
1444
25
169
484
900
1156
1444
2304
3721
3364
1296
1
1936
5776
7569
4761
1089
1
169
484
961
1296
1681
2704
3969
3249
961
64
2500
6561
7569
4096
784
0
225
576
1024
1369
1764
2916
4096
3136
729
144
2916
6889
7569
3844
576
1
196
529
1089
1600
2025
3136
4096
2916
529
256
3364
7396
7396
3249
441
1
196
625
1156
1600
2116
3481
4225
2500
324
484
3969
7744
7225
2704
225
49
361
729
1156
1521
2209
3364
3844
2025
81
900
4356
7744
6241
2116
121
81
361
784
1225
1600
2304
3600
3721
1600
9
1369
5041
7744
5476
1600
36
144
484
900
1369
1764
2704
3844
3249
1089
16
2116
6084
7569
4489
900
0
256
529
841
1156
1681
2809
4096
3364
1024
49
2500
6889
8100
4356
729
4
289
625
1024
1369
1764
2916
4096
3136
784
144
2916
7056
7569
3844
676
1
256
676
1089
1444
1936
3136
4225
2809
529
289
3364
7225
7225
3136
400
4
256
625
961
1296
1849
3249
4225
2704
361
361
3721
7744
7225
2916
289
36
289
676
1156
1600
2209
3481
4096
2209
144
841
4624
8100
6724
2304
121
100
441
900
1296
1681
2500
3844
3721
1444
0
1764
5776
7921
5184
1369
36
121
441
961
1369
1764
2809
4096
3481
1156
16
2304
6400
7569
4489
841
0
225
576
961
1296
1681
2704
4096
3136
841
100
2704
6889
7744
4096
676
1
289
625
1024
1296
1681
3025
4356
3025
625
225
3136
7396
8100
3969
576
9
324
729
1225
1600
2116
3249
4096
2704
484
324
3721
8464
8100
3481
324
36
361
729
1156
1444
2116
3364
4225
2401
225
625
4096
7569
6724
2500
196
64
361
784
1156
1444
2116
3481
3721
1764
36
1156
5041
7744
5929
1764
64
144
441
900
1296
1681
2500
3844
3481
1296
4
1936
5929
7744
5041
1225
9
196
529
961
1369
1681
2601
3969
3364
1156
16
2209
6400
7921
4489
841
0
256
625
900
1225
1681
2809
3969
3136
841
100
2809
6889
7569
3969
625
1
256
676
1089
1444
1849
3025
4096
2916
625
225
3249
7396
7744
3600
529
9
225
576
1089
1521
2025
3249
4225
2809
441
400
3721
7744
7396
3136
324
25
256
729
1225
1600
2025
3364
3969
2401
225
576
3969
7744
6724
2500
225
36
324
676
1089
1521
2401
3721
3969
1936
49
1156
5184
8100
6084
1849
64
144
484
900
1296
1600
2500
3721
3600
1369
4
1936
6084
7744
4900
1156
1
225
576
961
1225
1444
2500
4096
3481
1225
25
2500
6724
7921
4489
900
1
289
625
1089
1369
1681
2704
3969
3136
784
121
2809
7056
7569
3844
529
4
225
576
961
1296
1849
3136
4225
3025
576
256
3249
7396
7569
3481
529
9
256
625
1089
1444
1936
3249
4096
2704
441
324
3481
7921
7744
3249
324
49
324
676
1156
1521
2209
3481
4225
2116
121
784
4225
7744
6724
2401
144
81
400
784
1089
1444
2304
3721
3969
1764
25
1296
5184
7744
5625
1681
64
100
484
961
1369
1681
2601
3844
3364
1225
9
2025
6084
7744
4761
1024
0
225
529
961
1369
1600
2601
3969
3249
961
49
2401
6561
7744
4356
841
0
256
625
1024
1369
1764
2809
4096
3136
784
121
2809
7056
7396
3721
729
1
196
625
1156
1521
1936
3136
4356
2916
484
324
3364
7396
7569
3364
441
16
256
676
1156
1521
2025
3136
3969
2401
324
441
3721
7569
7056
2809
256
16
256
676
1225
1600
2304
3600
3969
2025
81
961
4624
7744
6241
2116
100
100
441
841
1156
1521
2401
3969
3721
1444
0
1764
5776
7744
5184
1225
4
169
441
841
1225
1600
2500
3844
3481
1296
4
2025
5929
7744
4761
1024
1
256
576
961
1296
1681
2704
3844
3136
900
49
2401
6561
7744
4356
841
0
256
625
961
1225
1600
2809
4096
3364
900
81
2704
6889
7744
4225
784
0
225
576
1024
1444
1849
3025
4096
3136
676
225
3249
7225
7569
3600
484
9
256
625
1024
1444
1936
3249
4356
2809
484
289
3481
7396
7396
3249
400
16
324
729
1024
1369
1936
3249
4096
2304
225
625
3969
7569
6724
2601
196
64
361
784
1156
1521
2209
3481
3969
1849
36
1156
5041
7744
5929
1764
64
121
400
841
1296
1681
2500
3844
3600
1369
1
1936
6084
7921
5041
1156
4
196
529
900
1296
1681
2601
4096
3600
1089
36
2401
6561
7744
4489
900
0
256
625
1024
1444
1764
2809
4096
3136
784
121
2809
6889
7744
3969
676
1
256
576
1024
1444
1764
3025
4225
3025
625
225
3136
7396
7569
3481
529
4
256
625
1089
1444
1936
3249
4225
2704
400
400
3600
7396
7225
3136
361
36
324
729
1156
1600
2304
3600
3721
1849
121
784
4356
7569
6400
2209
121
81
400
784
1225
1521
2116
3364
3600
1600
25
1296
5184
7744
5476
1444
25
169
441
841
1156
1521
2304
3721
3481
1225
4
2025
6084
7569
4624
961
0
225
529
961
1296
1600
2500
3721
3136
961
25
2304
6241
7744
4489
961
0
256
625
1089
1369
1764
2809
3969
3136
841
81
2704
6724
7569
4096
729
1
256
625
1024
1296
1681
2916
4225
3136
729
169
3025
7396
7569
3600
529
9
256
576
1024
1369
1936
3136
4225
2809
441
324
3364
7396
7225
3136
324
25
361
676
961
1225
1849
3136
4096
2401
324
441
3721
7396
6889
2704
256
36
324
784
1156
1444
2025
3364
3721
1936
121
841
4356
7744
5929
1936
64
100
361
784
1156
1444
2209
3481
3481
1369
4
1521
5329
7396
5041
1296
9
196
529
900
1156
1444
2304
3721
3364
1225
4
1936
5776
7396
4624
1024
4
225
625
1024
1296
1600
2704
3969
3249
900
64
2401
6400
7396
4096
784
0
196
484
961
1369
1849
2916
3969
2916
625
196
2916
6724
7396
3721
576
4
225
576
961
1296
1764
3025
4225
3025
576
196
3136
7225
7569
3364
441
16
256
576
1024
1369
1936
3249
4096
2500
324
484
3600
7569
7056
2704
225
49
361
676
1089
1444
2116
3481
3844
1849
81
841
4356
7569
6241
2025
100
81
400
784
1156
1521
2304
3600
3600
1600
4
1444
5184
7569
5329
1444
16
169
484
900
1225
1600
2401
3600
3364
1156
4
1936
5776
7569
4761
1089
1
225
529
900
1296
1600
2500
3844
3136
961
36
2401
6400
7569
4225
784
1
256
576
841
1225
1600
2809
3969
3136
841
81
2601
6724
7569
4096
729
1
225
576
1024
1369
1764
3025
4096
3025
676
169
3025
6889
7225
3481
529
4
225
529
961
1369
1849
2916
4096
2809
529
256
3249
7056
7225
3249
400
16
256
625
1024
1444
2025
3249
3969
2304
289
484
3721
7569
7225
2809
225
81
400
784
1156
1444
2025
3364
3721
1849
81
900
4356
7396
5929
1936
81
121
441
900
1225
1296
1936
3364
3364
1444
4
1369
4900
7225
4900
1296
36
100
400
900
1296
1764
2601
3721
3249
1024
25
2209
6400
7396
4096
784
0
196
529
961
1369
1600
2401
3721
3025
961
49
2304
6241
7225
3969
784
0
196
529
961
1296
1600
2704
3969
3025
729
121
2809
6561
7056
3481
484
1
169
400
841
1369
1764
3025
4096
2916
625
225
3136
6889
7056
3364
529
1
225
625
1089
1444
2025
3136
3844
2209
289
361
3364
7056
6889
2809
256
36
289
625
1089
1521
2116
3364
3721
2025
144
625
3969
7396
6241
2116
144
64
361
729
1024
1369
2209
3481
3721
1681
9
1521
5041
7396
5041
1369
25
144
441
900
1225
1681
2500
3721
3364
1089
16
2116
5776
7396
4489
961
1
196
484
841
1296
1600
2704
3969
3249
961
49
2304
6241
7396
4225
900
0
225
576
1024
1369
1681
2704
3844
3136
841
121
2916
6889
7225
3600
529
1
169
484
961
1369
1764
2916
4225
3025
625
196
3136
7056
7225
3481
484
4
256
576
1089
1369
1764
3025
3969
2704
441
324
3364
7396
7056
3025
289
36
289
576
1024
1369
2025
3249
3721
2116
225
576
3844
7396
6400
2304
144
64
324
729
1089
1444
2116
3364
3600
1681
25
1156
4761
7396
5776
1681
49
144
484
900
1156
1600
2500
3721
3481
1156
16
2025
5929
7396
4225
841
1
196
484
900
1296
1681
2704
3721
3025
784
64
2304
6084
7225
4096
729
0
196
529
900
1296
1764
2809
3969
3136
784
121
2704
6561
7225
3969
676
1
256
625
1024
1444
1849
3025
4096
2916
529
225
3136
7225
7225
3364
441
16
256
576
1024
1369
1936
3249
4096
2500
256
529
3721
7396
6889
2704
256
49
324
676
1156
1521
2116
3364
3969
2025
121
841
4489
7569
6241
2025
100
81
400
784
1225
1521
2304
3721
3481
1369
0
1600
5476
7396
5041
1225
4
196
484
841
1225
1600
2401
3600
3249
1156
9
2025
5776
7225
4356
900
1
169
484
900
1296
1681
2500
3721
3136
1024
36
2500
6889
7744
4225
729
1
256
576
961
1369
1764
2704
3969
3136
784
100
2809
6724
7225
3721
625
0
225
576
1024
1296
1764
3025
4225
3025
625
256
3364
7396
7396
3364
441
9
256
625
1089
1444
1849
3136
3969
2704
441
361
3481
7225
7056
2809
289
36
289
625
1089
1369
1936
3249
3600
1936
169
625
3969
7396
6241
2025
81
100
289
529
1024
1521
2304
3600
3721
1600
16
1296
5041
7569
5329
1444
25
144
484
900
1225
1444
2401
3721
3364
1225
9
2116
6084
7396
4356
961
1
196
484
961
1225
1681
2704
3844
3249
900
64
2401
6241
7396
3969
729
4
225
484
900
1369
1764
2704
3969
3136
729
121
2601
6724
7396
3969
676
1
225
625
1089
1444
1849
3136
4096
2916
625
169
3025
7569
8100
3721
529
9
256
625
1089
1444
1936
3364
4225
2704
361
361
3364
7225
7225
3025
324
25
256
625
1024
1444
2116
3364
3844
2116
169
625
4096
7569
6561
2304
121
81
400
729
1156
1444
2116
3481
3721
1681
25
1225
4900
7569
5329
1444
36
121
441
841
1225
1681
2500
3600
3136
1089
9
2025
5776
7569
4624
961
1
256
529
961
1225
1681
2601
3721
3249
1156
25
2401
6724
7744
4356
841
0
256
484
900
1296
1764
2916
4225
3249
784
144
2809
6724
7569
3844
625
1
256
576
1024
1369
1849
2916
4096
3025
676
196
3136
7225
7396
3481
484
1
196
529
1024
1444
2025
3364
4225
2601
361
400
3481
7396
7056
2916
324
25
289
625
1089
1521
2116
3481
3844
2116
144
729
4096
7396
6241
2304
144
64
361
784
1156
1521
2304
3481
3600
1600
16
1369
5041
7396
5329
1444
16
144
441
841
1225
1600
2304
3600
3364
1225
9
2025
6084
7569
4489
900
1
196
529
961
1369
1764
2601
3481
3025
961
16
2116
6084
7396
4225
900
1
225
529
961
1369
1764
2809
3969
3025
784
81
2601
6400
7569
4096
784
0
196
529
961
1369
1849
2916
4096
3136
784
121
2809
6889
7569
3844
625
0
196
529
961
1296
1764
3025
4096
2916
625
196
3025
6889
7056
3249
441
9
256
529
961
1296
1849
2916
3969
2601
484
289
3249
7056
6889
3025
324
25
225
576
1024
1444
2025
3249
3844
2209
196
625
3969
7396
6561
2401
144
81
400
784
1156
1521
2209
3481
3600
1600
16
1225
4761
7225
5329
1600
49
121
441
841
1225
1600
2401
3721
3364
1225
4
1936
5929
7569
4761
1024
1
196
484
900
1225
1600
2601
3844
3249
961
36
2209
6084
7225
4225
784
0
196
484
900
1296
1681
2704
3844
3136
841
81
2601
6561
7396
3969
676
1
225
576
1024
1369
1764
3025
3969
2916
625
196
3136
7225
7569
3481
484
9
289
625
1024
1369
1849
3025
4096
2704
441
324
3364
7056
7056
3025
324
25
256
625
961
1296
1936
3249
3969
2401
289
484
3721
7396
6724
2601
225
36
289
729
1089
1444
2025
3364
3721
1849
64
1024
4624
7396
5776
1764
64
121
441
841
1225
1521
2304
3600
3481
1296
0
1600
5329
7396
5041
1225
9
196
484
784
1156
1521
2500
3600
3364
1225
16
2116
6241
7396
4356
841
0
225
529
900
1296
1600
2601
3844
3136
900
49
2500
6241
7396
4096
784
0
225
576
1024
1296
1600
2704
3969
3025
729
144
2809
6724
7569
3600
576
4
256
576
961
1369
1849
3025
4096
2916
576
256
3136
7056
7225
3364
441
9
225
576
961
1369
2025
3249
4096
2601
441
361
3481
7225
7056
3025
324
25
256
625
1089
1444
2025
3364
3969
2209
169
625
3969
7569
6561
2401
144
81
361
729
1089
1444
2116
3481
3600
1600
25
1296
5041
7569
5476
1521
36
121
400
841
1296
1600
2500
3721
3481
1225
4
2025
5929
7396
4624
1024
4
196
529
900
1296
1681
2704
3969
3364
1024
36
2304
6400
7396
4096
784
0
196
529
900
1296
1681
2916
4096
3249
841
100
2704
6724
7396
3844
729
0
196
529
961
1296
1764
2916
4225
3136
676
169
3025
6889
7225
3481
484
4
225
576
961
1296
1849
3136
4096
2809
484
256
3249
7056
7225
3249
400
9
256
576
961
1369
1849
3249
4096
2601
400
361
3481
7396
7056
2916
289
25
256
625
1024
1444
2116
3364
3844
2116
169
729
4096
7396
6241
2116
144
64
361
729
1089
1444
2209
3600
3600
1521
9
1444
5184
7569
5476
1521
36
169
529
900
1296
1600
2500
3844
3481
1225
4
2025
5929
7396
4489
1024
4
169
441
841
1225
1600
2704
4096
3364
961
36
2304
6084
7396
4096
841
1
196
529
900
1156
1521
2704
4225
3364
900
64
2500
6561
7569
4225
729
0
196
576
1024
1369
1849
3025
4225
3025
625
169
2916
6889
7396
3481
576
4
225
529
961
1369
1849
3136
4096
2809
529
256
3364
7569
7744
3600
400
25
324
676
1089
1444
2025
3364
4096
2304
256
576
3844
7569
6724
2500
196
49
324
676
1156
1444
2116
3481
3721
1849
64
961
4624
7744
6084
1936
100
100
484
841
1296
1681
2500
3721
3600
1369
0
1849
5776
7744
5041
1296
9
196
529
900
1369
1681
2601
3844
3364
1156
9
2209
6400
7921
4761
961
0
256
625
1024
1369
1681
2704
3969
3249
900
49
2500
6724
7744
4225
841
0
225
529
1024
1444
1936
3025
4225
3136
729
144
2916
7056
7744
3969
625
4
256
625
1089
1444
1936
3136
4225
2916
484
324
3481
7569
7396
3249
400
9
256
625
1089
1444
2209
3364
4225
2401
289
484
3844
7744
7056
2704
225
49
324
676
1024
1369
2304
3721
3969
1936
81
1024
4761
7744
6241
1936
81
144
441
900
1225
1521
2401
3721
3600
1444
1
1681
5929
8100
5329
1225
4
196
529
900
1296
1600
2704
3844
3481
1156
16
2209
6400
7744
4489
841
1
256
576
961
1225
1681
2704
3844
3136
841
81
2601
6561
7744
4225
784
0
256
625
1024
1296
1764
2916
4225
3136
729
169
3025
7225
7569
3600
576
4
256
576
1024
1369
1936
3136
4225
2916
529
289
3364
7569
7744
3249
361
16
289
625
1089
1521
2116
3481
4096
2304
225
529
3969
7744
7056
2601
196
49
289
729
1089
1521
2209
3600
3844
1849
64
1024
4761
7744
5929
1849
81
121
441
900
1296
1600
2500
3721
3600
1369
1
1936
6084
7921
5041
1156
4
225
529
900
1296
1600
2704
3969
3364
1089
16
2304
6561
7744
4356
841
0
225
576
1024
1369
1764
2916
4096
3136
676
144
2809
6724
7396
3721
625
1
225
576
1024
1369
1849
3025
4225
2916
576
256
3249
7396
7569
3364
484
4
225
625
1089
1444
2025
3249
4225
2601
361
324
3481
7569
7225
3025
361
16
256
676
1156
1521
2116
3481
3969
2209
169
729
4225
7569
6241
2209
144
64
361
784
1225
1521
2209
3481
3600
1681
16
1369
5184
7569
5329
1444
16
144
441
841
1225
1521
2401
3721
3364
1225
1
1936
6084
7569
4624
961
1
225
529
900
1296
1600
2601
3969
3249
1024
36
2304
6400
7569
4096
784
0
196
529
961
1296
1681
2809
4096
3249
841
100
2809
6724
7569
3969
676
1
225
529
961
1296
1764
3025
4225
3136
729
169
2916
7056
7396
3721
576
1
196
529
961
1369
1936
3249
4225
2809
484
289
3249
7225
7225
3249
400
16
256
529
961
1369
1936
3249
4096
2500
361
400
3600
7569
7056
2809
225
36
289
676
1024
1296
2025
3481
3969
2116
121
841
4489
7744
6084
1936
100
81
361
729
1156
1444
2304
3600
3721
1600
9
1444
5329
7569
5184
1369
16
169
529
900
1296
1600
2500
3721
3249
1089
16
2116
6084
7569
4356
900
1
169
484
900
1296
1681
2704
3969
3249
961
36
2401
6400
7396
4096
784
1
169
484
900
1225
1681
2809
4096
3249
841
100
2704
6724
7225
3844
625
0
196
529
961
1296
1764
2916
4096
3136
676
169
3025
7056
7396
3600
529
4
225
576
961
1296
1764
3136
4225
2916
529
256
3364
7225
7225
3136
361
25
256
625
961
1225
1681
3136
4096
2500
361
400
3481
7225
6724
2601
256
25
289
676
1089
1444
2116
3481
3844
1936
100
961
4761
7744
6084
1849
64
100
400
784
1225
1521
2401
3844
3600
1444
0
1764
5625
7744
5041
1225
9
196
529
841
1156
1521
2401
3721
3364
1225
4
2025
5776
7225
4489
961
4
169
484
841
1225
1681
2601
3844
3364
1024
36
2500
6889
7921
4225
729
1
225
576
1024
1296
1681
2916
4096
3136
784
121
2809
7056
7569
3721
625
4
225
529
961
1296
1849
3136
4096
2916
625
225
3136
7056
7396
3481
529
1
196
576
1024
1444
2025
3249
4096
2601
441
324
3481
7569
7396
2916
256
36
289
576
1024
1444
2116
3481
3969
2209
144
729
4225
7396
6400
2209
121
81
400
784
1089
1225
1936
3481
3844
1764
36
1225
5184
7569
5329
1444
25
121
441
841
1156
1521
2500
3844
3481
1296
9
2116
6084
7569
4489
961
4
144
441
900
1296
1681
2601
3969
3364
1089
25
2304
6241
7396
4096
784
0
196
529
961
1296
1681
2704
3969
3136
784
100
2704
6889
7569
3844
625
1
225
576
1024
1369
1849
3025
4096
2916
576
225
3136
7225
7569
3481
441
9
256
529
961
1369
1936
3249
4225
2704
441
324
3481
7396
7225
3025
324
16
225
576
1024
1444
2025
3364
4096
2209
196
625
3969
7569
6400
2209
144
64
324
676
1089
1369
2209
3600
3721
1764
36
1156
4900
7569
5625
1600
36
121
441
841
1225
1600
2401
3721
3249
1156
4
1936
5776
7396
4489
961
4
196
484
841
1156
1600
2601
3969
3481
1089
36
2304
6400
7569
4225
784
0
225
529
900
1296
1681
2809
3969
3136
784
81
2601
6561
7569
3844
625
1
225
576
961
1296
1681
2809
3969
2916
676
169
2916
6889
7225
3600
529
1
196
529
961
1369
1849
3136
4225
2916
576
196
3136
7225
7569
3364
441
9
256
576
1024
1369
1936
3364
4096
2601
400
361
3481
7225
6889
2916
256
25
289
576
1024
1296
2116
3481
4096
2116
169
729
4225
7744
6400
2209
144
64
324
676
1089
1521
2401
3721
3721
1600
9
1444
5329
7569
5329
1444
25
144
484
841
1225
1600
2500
3844
3481
1225
4
2025
5929
7569
4489
961
1
169
529
900
1296
1600
2601
3969
3481
1089
25
2304
6241
7744
4489
900
0
225
576
961
1296
1681
2809
4096
3249
900
100
2704
6724
7396
3969
729
0
196
529
961
1444
1849
2916
3969
2809
625
169
2916
6724
7225
3481
576
1
196
529
961
1369
1849
3136
4096
2809
576
225
3136
7225
7225
3249
441
9
196
529
900
1296
1936
3136
4096
2704
400
324
3364
7225
7056
2809
289
25
256
625
1024
1369
1936
3249
3969
2116
169
625
3969
7396
6400
2209
121
64
324
784
1156
1521
2209
3481
3600
1600
16
1296
5041
7569
5329
1444
25
144
441
784
1156
1521
2500
3721
3481
1156
4
2025
5929
7396
4489
961
1
196
529
900
1225
1600
2500
3721
3025
961
49
2304
6084
7396
4096
784
1
256
576
961
1225
1600
2704
3969
3136
784
100
2601
6561
7396
3969
676
4
256
576
961
1369
1764
2809
3969
2916
625
169
3025
7056
7396
3481
529
4
225
576
1024
1369
1936
3136
4225
2809
484
289
3249
7056
7056
3249
400
9
225
576
961
1296
1936
3136
3969
2401
324
400
3481
7225
6724
2704
256
49
324
625
1089
1444
2025
3249
3721
1936
121
784
4225
7396
6084
1936
81
100
400
784
1089
1444
2116
3481
3481
1444
4
1444
5184
7225
5184
1296
9
196
529
841
1225
1521
2304
3481
3249
1156
1
1849
5625
7225
4624
1024
1
196
484
841
1225
1600
2601
3844
3136
961
36
2209
6084
7225
4096
784
0
225
484
900
1225
1681
2601
3721
3025
841
64
2601
6561
7396
3969
729
1
225
576
961
1369
1681
2704
3969
2916
729
100
2601
6084
6561
2601
36
484
625
196
100
196
529
1444
2116
1369
144
289
2304
4624
4356
1089
81
841
289
9
25
289
900
1936
2601
1764
400
81
1521
3721
3844
1089
81
900
289
4
4
49
400
1296
2025
1521
400
36
1156
3249
3600
1225
49
1156
576
4
16
9
256
961
1764
1369
400
25
1024
3025
3721
1681
1
1156
900
81
0
25
256
841
1600
1600
576
1
784
2704
4096
2704
144
676
1024
196
4
49
361
900
1681
1764
784
16
484
2209
4096
3136
324
400
841
169
4
36
289
784
1600
1936
961
64
324
2025
3969
3364
529
256
841
196
0
4
169
625
1444
2025
1225
169
169
1681
3721
3364
676
225
900
256
0
0
100
529
1369
1936
1296
256
100
1600
3721
3600
900
144
1024
400
1
0
81
484
1369
1936
1369
256
100
1600
3600
3721
961
121
1156
484
4
0
64
441
1225
1849
1369
324
81
1521
3600
3844
1225
64
1156
625
16
0
49
400
1225
1936
1444
361
49
1296
3364
3969
1600
9
1156
784
36
1
36
324
1089
1849
1600
529
9
961
3025
4096
2304
36
841
841
64
0
49
361
900
1681
1849
841
49
361
2025
3969
3249
361
361
784
121
1
16
225
784
1521
1849
1024
100
256
1936
3969
3249
441
324
784
144
1
9
196
729
1600
1936
1089
121
196
1764
3721
3249
576
289
841
169
1
1
144
529
1369
2025
1296
196
144
1681
3721
3364
676
225
961
256
0
0
81
484
1369
2025
1296
225
144
1681
3721
3481
900
144
1089
400
1
0
64
441
1369
2025
1369
256
121
1600
3844
3721
1089
100
1156
484
4
0
81
484
1369
2025
1369
289
81
1444
3600
3969
1369
36
1089
576
4
1
49
400
1156
1936
1521
441
16
1089
3249
3969
1681
4
1024
729
36
4
25
324
1024
1764
1521
576
0
729
2500
3844
2209
36
841
900
64
4
16
256
784
1521
1681
841
36
324
1936
3721
2916
361
400
784
121
0
16
225
729
1521
1764
961
81
225
1681
3721
3249
529
256
841
169
0
4
169
625
1444
1936
1225
196
144
1600
3721
3481
729
225
961
225
1
0
100
529
1444
2116
1444
256
121
1600
3600
3481
841
121
900
289
1
1
64
441
1369
2025
1444
324
64
1369
3481
3721
1156
64
1089
484
4
1
36
324
1156
1936
1521
441
9
1024
3025
3969
1849
0
1024
729
36
4
25
324
1024
1764
1600
625
0
676
2500
3969
2401
81
676
841
64
1
16
256
784
1521
1764
900
64
256
1849
3844
3136
400
361
841
144
1
9
169
676
1369
1849
1089
144
169
1849
3969
3481
576
256
841
196
0
4
144
625
1444
1936
1225
196
121
1600
3721
3481
729
196
900
225
4
0
121
529
1369
2116
1444
289
81
1521
3600
3600
900
121
1024
324
4
9
49
484
1369
2025
1444
324
49
1296
3364
3600
1156
81
1089
441
0
9
25
324
1225
2025
1600
441
25
1156
3249
3969
1521
9
1156
676
16
9
25
324
1024
1849
1600
529
1
900
2809
3969
2209
36
784
784
64
0
25
289
900
1600
1849
900
49
289
1936
3969
3136
361
361
784
100
0
16
225
729
1521
1849
1024
121
196
1849
3969
3481
484
289
784
121
1
9
196
676
1521
1936
1156
169
169
1764
3969
3481
576
256
841
144
9
0
121
625
1521
2116
1296
225
121
1600
3600
3364
625
225
900
225
9
1
81
484
1369
2025
1296
256
81
1369
3364
3481
900
121
1089
361
0
9
49
400
1225
1936
1369
324
49
1296
3249
3600
1225
64
1156
529
1
4
25
324
1089
1849
1521
441
9
1024
2916
3721
1849
0
961
729
25
4
25
324
900
1600
1600
729
25
361
1936
3600
2704
196
484
729
64
9
4
225
784
1521
1764
961
100
196
1600
3600
3025
400
361
841
100
9
0
121
576
1369
1849
1156
196
121
1444
3481
3136
625
196
784
144
9
1
144
576
1444
1936
1225
256
81
1369
3249
3249
784
144
1024
256
9
9
36
400
1156
1849
1369
361
49
1156
3136
3481
1024
81
1024
400
1
25
25
361
1225
1936
1369
361
16
1089
3025
3364
1225
49
1089
484
1
16
16
289
1089
1849
1444
441
16
1024
3025
3600
1444
9
961
576
4
25
9
289
961
1681
1600
676
16
441
2116
3600
2500
144
529
625
36
9
9
256
841
1521
1764
900
81
169
1600
3364
2916
361
324
729
81
16
0
144
676
1444
1849
1089
169
144
1521
3481
3025
529
256
784
121
16
1
100
576
1444
1936
1225
225
100
1444
3364
3136
576
225
784
144
16
4
81
529
1296
1849
1225
256
64
1296
3136
3249
784
169
961
256
4
25
36
441
1296
1936
1369
324
36
1225
3136
3481
1089
81
1024
441
0
9
36
361
1156
1764
1369
361
25
1089
3025
3600
1444
16
1024
625
4
16
16
324
1156
2025
1681
529
16
1089
3025
3721
1600
1
1089
729
16
9
16
289
900
1600
1521
625
9
484
2116
3481
2500
144
484
625
25
9
9
256
784
1600
1849
1024
121
196
1681
3721
3136
400
361
784
121
0
9
169
625
1296
1681
1024
144
169
1681
3721
3136
441
324
841
144
4
0
100
484
1296
1849
1089
196
121
1521
3600
3249
576
225
841
169
4
0
121
576
1444
1936
1296
256
100
1521
3600
3481
729
225
900
196
9
1
81
484
1296
1936
1296
289
64
1369
3364
3481
1024
100
1024
324
0
1
49
441
1296
1936
1369
361
36
1225
3249
3600
1296
36
961
484
4
4
49
361
1156
1849
1444
484
4
900
2916
3844
1936
4
841
729
25
4
25
256
784
1521
1681
900
64
324
1936
3721
2916
256
441
729
81
4
9
225
729
1444
1764
1089
121
196
1681
3721
3249
529
289
841
144
4
1
169
625
1521
1936
1225
169
169
1681
3600
3364
676
196
784
144
4
0
144
576
1521
2116
1369
256
121
1521
3600
3481
784
144
841
225
1
1
81
484
1369
2025
1521
361
64
1444
3600
3721
1225
49
900
441
1
1
49
441
1225
2025
1600
441
16
1225
3249
3844
1521
9
1024
676
25
0
36
324
1024
1849
1600
576
1
900
2809
4096
2401
81
676
729
100
0
36
324
841
1681
1764
841
25
441
2209
4096
3025
289
400
841
225
4
16
196
729
1600
1936
1089
64
400
2304
4356
3481
484
256
900
289
25
36
225
729
1764
2304
1369
100
361
2401
4624
3844
729
121
625
289
81
100
324
841
2025
2601
1444
121
400
2809
5776
4900
1369
0
484
576
484
441
529
1024
2304
3136
1849
144
625
3721
6724
5476
1764
49
121
324
676
1024
1296
1936
3136
3364
1521
16
1225
4624
6889
4900
1156
4
196
484
841
1225
1521
2304
3364
3025
1024
9
2025
5776
7396
4624
1024
1
196
484
961
1225
1681
2704
3844
3136
1024
16
2116
6084
7225
4096
784
4
121
361
729
1089
1600
2704
3969
3249
961
25
2304
5929
7056
3844
676
0
169
400
784
1089
1444
2601
3721
2916
784
81
2401
5929
6561
3364
529
4
196
484
841
1225
1600
2704
3721
2704
529
196
2809
6400
6561
3136
400
9
225
529
900
1225
1681
2916
3969
2601
441
256
3136
6889
6889
3025
400
9
225
576
961
1296
1936
3136
3969
2401
324
361
3364
7056
6724
2704
256
25
289
625
1024
1296
2025
3249
3600
1936
121
729
3969
7056
5776
1849
81
81
324
625
1024
1444
2209
3481
3600
1521
16
1225
5041
7056
5041
1296
16
121
361
729
1089
1444
2401
3721
3249
1156
4
1849
5625
7056
4225
900
0
196
441
784
1024
1369
2500
3721
3364
1089
16
2209
5929
7056
3844
729
0
196
484
841
1225
1600
2704
3844
3136
784
121
2704
6561
7056
3481
576
1
196
529
900
1296
1681
2916
3969
2916
625
225
3136
6889
7056
3249
441
9
225
529
900
1296
1764
3136
4096
2704
484
256
3249
7056
6889
3025
361
9
225
529
900
1296
1936
3249
4096
2401
324
400
3481
7056
6561
2500
225
49
256
529
900
1296
2025
3364
3721
1936
121
784
4225
7225
5929
1764
81
81
324
676
1089
1444
2116
3364
3600
1600
16
1296
4900
7225
5041
1156
1
196
400
625
961
1369
2209
3364
2916
1024
25
2025
5625
6889
3600
289
196
441
256
256
529
1024
2209
3136
2401
529
121
2209
4900
5041
1849
0
529
361
49
36
169
676
1764
2704
2025
484
64
1681
4225
4624
1849
0
841
625
36
0
64
361
1225
2209
2025
676
4
1089
3249
4356
2401
49
676
676
49
0
36
324
961
1936
1936
900
16
529
2304
4096
3025
256
441
784
144
4
49
256
841
1681
1936
900
36
361
2116
4356
3481
484
289
784
169
1
25
256
841
1764
2116
1089
100
256
2025
4225
3721
676
196
676
144
0
25
289
841
1764
2304
1369
196
196
1936
4225
3721
729
169
729
144
0
9
169
729
1600
2304
1444
225
121
1681
3969
3721
784
144
784
196
1
0
121
625
1444
2209
1444
324
81
1600
3844
3721
1024
100
900
289
0
0
100
529
1444
2116
1521
324
81
1521
3721
3844
1089
81
961
400
1
0
64
441
1369
2116
1600
441
25
1225
3600
4225
1681
9
1024
625
16
1
36
400
1225
2116
1764
576
9
1024
3136
4225
2209
25
841
729
49
1
49
289
841
1681
1849
900
36
400
2116
4096
3025
289
441
729
81
1
25
289
841
1600
1936
1024
100
256
1936
4225
3364
441
324
729
100
1
16
289
841
1600
1936
1156
169
196
1849
4096
3600
529
289
729
121
4
1
169
676
1600
2116
1369
196
196
1849
3969
3481
576
256
784
144
4
0
144
625
1444
2116
1444
289
100
1521
3721
3600
841
144
841
196
1
0
100
529
1444
2116
1444
289
100
1600
3844
3844
1024
121
900
289
0
0
121
576
1444
2209
1444
324
81
1600
3721
3969
1156
64
961
361
0
0
100
529
1444
2209
1600
400
36
1296
3481
4096
1600
16
1024
529
4
4
49
400
1296
2025
1681
576
1
961
3136
4225
2116
16
841
676
25
4
36
361
1024
1681
1681
729
16
441
2209
3844
2601
144
576
729
64
4
16
289
900
1681
1849
900
64
289
1936
4096
3249
441
324
729
121
1
9
196
729
1521
1936
1225
225
144
1764
4096
3721
729
196
841
169
1
1
169
625
1600
2209
1444
256
121
1521
3844
3844
900
121
784
196
1
0
100
576
1521
2209
1600
361
64
1444
3721
3844
1089
81
900
289
0
1
64
441
1296
2116
1521
484
16
1156
3249
3969
1521
9
961
529
1
9
49
361
1156
1849
1681
625
0
784
2704
4096
2401
64
729
784
49
4
25
324
961
1764
1936
900
36
361
2025
4096
3136
361
324
676
81
0
25
324
841
1600
1849
1089
169
169
1849
4225
3600
529
324
900
144
9
0
169
676
1521
2209
1369
225
144
1764
3969
3721
784
169
729
144
4
1
144
625
1521
2209
1444
289
100
1600
3721
3721
900
169
841
225
4
1
100
576
1521
2209
1521
324
64
1369
3481
3721
1156
64
841
289
1
1
81
484
1296
1936
1444
400
16
1089
3136
3721
1444
9
841
441
1
4
49
361
1024
1849
1600
529
0
784
2601
3969
2401
64
729
784
81
0
49
324
900
1681
1764
841
49
324
2025
4096
3136
361
361
784
100
0
16
256
841
1600
1849
1089
121
225
1936
4225
3600
576
256
784
121
0
16
256
841
1681
2116
1225
144
169
1764
3969
3600
625
225
729
100
9
4
169
729
1600
2116
1369
225
144
1521
3600
3364
676
169
729
144
9
0
121
576
1444
2116
1444
324
81
1521
3600
3600
961
144
961
289
0
1
81
484
1369
2116
1444
289
81
1444
3481
3721
1225
64
1089
484
1
1
64
441
1296
2025
1521
400
16
1156
3364
4225
1764
1
961
676
16
4
36
361
1089
1849
1681
676
0
729
2601
3969
2601
121
625
729
36
0
49
400
1024
1681
1849
900
49
324
2116
3969
3136
324
400
729
81
1
16
289
841
1600
1849
1089
144
196
1849
4096
3481
484
289
729
100
1
9
225
729
1600
2025
1225
196
196
1764
3969
3481
625
225
729
121
4
1
169
625
1521
2116
1369
256
100
1600
3844
3721
841
144
841
196
1
0
144
576
1444
2025
1444
256
81
1444
3600
3600
1024
81
900
289
0
0
100
484
1369
2025
1444
361
49
1296
3481
4096
1444
25
961
484
4
0
64
441
1296
2025
1600
484
9
1089
3249
4356
2116
9
841
676
16
4
36
361
1089
1849
1849
841
16
484
2401
4096
2809
144
529
729
64
1
25
289
900
1764
1936
1024
81
289
2025
3969
3249
361
400
784
100
4
4
169
625
1444
1936
1225
196
144
1681
3844
3481
576
225
625
81
4
9
225
729
1600
2116
1369
256
100
1521
3844
3844
900
121
784
196
0
1
121
576
1521
2116
1444
256
100
1444
3721
3721
1024
121
900
225
1
0
121
625
1521
2209
1521
324
64
1444
3721
3969
1225
64
961
400
1
0
64
441
1369
2025
1444
400
25
1156
3136
3844
1521
9
1024
576
9
4
25
289
1024
1849
1681
625
0
784
2809
4225
2500
81
625
729
49
0
36
324
900
1681
1936
1024
64
361
2025
4096
3025
289
441
729
81
4
16
256
841
1600
1849
1024
121
196
1764
3844
3364
529
289
729
121
0
9
196
625
1521
2025
1296
196
169
1764
3969
3721
729
196
784
144
4
1
196
729
1681
2209
1296
169
144
1681
3600
3481
784
144
841
196
1
1
100
576
1600
2304
1444
256
144
1521
3600
3721
961
100
900
289
0
1
81
484
1369
2116
1444
324
64
1369
3481
3969
1369
36
1024
529
1
1
64
400
1296
2025
1600
484
9
1024
3136
4096
1936
1
900
676
16
9
25
361
1024
1764
1681
784
16
529
2500
4096
2601
121
529
676
49
1
36
361
1024
1764
1849
961
49
400
2116
4096
3136
324
400
729
81
1
16
256
841
1681
2025
1156
121
196
1764
4096
3721
625
256
729
100
1
16
256
784
1600
2025
1225
169
169
1681
3969
3600
625
196
729
121
4
1
196
676
1521
2025
1296
225
121
1521
3721
3600
729
169
784
144
1
1
144
576
1521
2116
1369
289
81
1444
3600
3721
961
100
961
289
1
1
81
484
1369
2025
1444
361
36
1225
3481
3969
1369
25
961
400
1
1
49
441
1296
2025
1681
529
4
1024
3136
4096
2025
4
900
676
25
4
25
324
961
1764
1764
841
25
441
2209
4096
2916
225
484
729
64
1
25
324
900
1600
1849
1089
144
225
1936
4225
3249
441
289
676
81
4
16
289
900
1681
2025
1156
144
169
1764
3969
3600
625
225
676
100
1
9
196
676
1600
2116
1369
225
121
1600
3844
3721
784
144
729
144
1
4
196
625
1521
2116
1444
289
100
1444
3600
3721
961
121
841
196
1
0
121
625
1521
1936
1225
256
64
1296
3364
3721
1156
49
841
324
0
0
64
441
1369
2025
1521
441
16
1024
3136
3969
1764
1
841
484
4
1
64
441
1089
1936
1681
676
1
676
2500
4096
2704
121
529
676
64
0
49
361
961
1849
1936
961
81
324
2116
4356
3364
400
400
729
100
1
16
289
841
1681
1936
1024
121
196
1764
3969
3481
529
256
676
100
0
25
256
784
1600
2025
1225
144
169
1764
3969
3600
625
225
676
81
1
9
196
676
1600
2116
1369
256
100
1444
3600
3600
900
121
676
144
1
1
169
625
1521
2116
1369
256
100
1444
3600
3721
961
100
841
225
1
0
121
576
1444
1936
1369
289
49
1225
3364
3844
1225
36
841
324
0
1
81
529
1369
2025
1521
400
16
1156
3364
4096
1764
4
961
625
4
4
64
400
961
1681
1600
625
4
529
2304
3969
2704
169
529
676
49
0
36
361
900
1681
1849
1024
100
256
1936
3844
3136
361
324
625
49
4
16
256
841
1681
1936
1089
144
196
1764
3969
3600
576
256
676
81
1
9
225
729
1600
2116
1296
225
121
1600
3844
3721
841
144
729
169
0
4
121
529
1369
2116
1444
324
64
1369
3600
3721
1089
81
784
225
1
0
100
529
1369
2209
1521
400
49
1296
3364
3844
1296
49
900
361
0
1
64
400
1296
2116
1600
441
16
1089
3249
4096
1764
0
900
625
4
9
49
400
1089
1849
1681
729
4
576
2500
3969
2601
169
484
676
81
0
25
256
900
1681
1936
1024
81
289
1936
3969
3249
441
324
676
81
1
16
256
841
1600
1936
1156
144
196
1681
3844
3481
625
196
676
100
4
4
256
784
1600
2025
1296
196
144
1600
3844
3600
841
121
729
169
1
4
169
676
1444
2025
1369
289
81
1444
3721
3844
961
100
900
256
0
0
100
484
1296
2025
1444
400
49
1296
3481
3844
1225
49
961
361
0
1
64
400
1225
1936
1600
529
4
1089
3481
4225
1849
0
961
676
25
1
49
361
961
1764
1681
729
9
529
2209
4096
2916
225
484
729
100
0
36
361
900
1600
1764
961
81
256
1764
3969
3600
576
289
729
121
0
25
289
784
1600
2025
1225
169
196
1764
3969
3721
729
169
676
121
1
9
225
729
1521
2025
1369
225
121
1521
3721
3721
841
144
729
121
4
0
144
625
1444
2209
1521
361
81
1521
3721
3844
1024
81
841
256
1
0
100
529
1369
2116
1521
361
49
1296
3481
3969
1296
36
1024
484
4
1
81
484
1296
1936
1369
361
25
1089
3249
3969
1681
4
1024
576
9
4
36
361
1089
1764
1600
625
0
729
2704
4096
2500
81
676
784
64
1
36
361
961
1681
1849
1024
81
289
1936
3969
3249
441
289
625
81
1
25
324
841
1521
1849
1089
144
196
1764
3844
3481
576
225
676
100
4
9
256
676
1521
1936
1296
225
144
1600
3844
3600
784
169
729
144
4
1
169
625
1521
2209
1600
289
121
1600
3969
3721
900
121
841
225
1
0
121
529
1369
2116
1444
361
49
1296
3481
3721
1156
64
900
289
1
4
81
441
1296
1936
1521
441
16
1156
3249
3844
1521
9
961
529
4
4
36
400
1156
1849
1600
576
0
784
2704
4096
2401
64
676
729
49
0
64
361
961
1681
1764
900
64
324
1936
3969
3249
400
324
676
100
1
16
256
900
1600
1764
1024
121
196
1681
3844
3364
484
256
676
81
4
16
256
841
1600
2025
1225
169
144
1681
3844
3600
729
169
625
100
4
4
196
676
1521
2025
1369
256
100
1521
3721
3481
729
169
729
144
4
0
121
576
1444
2025
1444
289
64
1369
3481
3600
1156
49
784
256
0
0
121
529
1444
2116
1521
361
25
1089
3481
4356
1681
9
900
441
1
1
81
484
1225
1936
1521
529
4
961
3025
4096
2116
16
841
676
36
1
64
361
1024
1764
1764
784
16
441
2116
3969
2916
225
441
625
49
1
49
361
961
1600
1849
1024
100
256
1849
3969
3364
441
289
576
49
0
36
324
784
1600
1936
1225
169
169
1764
4096
3600
625
196
676
100
1
9
225
729
1444
2025
1296
225
121
1600
3721
3600
729
169
729
144
1
4
169
625
1444
2025
1296
225
121
1444
3481
3364
729
144
784
169
9
1
121
576
1444
2116
1444
324
64
1369
3600
3844
1156
81
900
289
0
0
100
529
1369
2025
1444
361
36
1225
3364
3969
1444
25
900
400
0
1
81
441
1225
2025
1600
529
4
900
2916
4225
2209
16
729
625
25
4
36
361
1024
1849
1849
784
25
441
2116
3844
2704
196
441
625
49
0
36
324
841
1600
1849
961
100
225
1764
3844
3364
484
256
676
81
4
9
256
729
1521
1936
1225
196
121
1600
3844
3721
841
121
784
169
1
4
196
676
1521
2025
1444
289
81
1444
3721
3844
1089
81
729
196
1
0
121
529
1444
2209
1521
400
49
1296
3481
3844
1296
36
900
361
0
1
64
484
1296
2025
1521
441
9
1024
3136
3969
1764
0
900
625
9
4
49
324
961
1600
1764
784
16
529
2304
3844
2704
196
484
676
81
0
36
324
841
1521
1849
961
81
289
1764
3844
3249
529
256
784
144
0
16
225
729
1521
1936
1156
169
169
1600
3969
3600
676
196
729
121
9
1
169
676
1521
2209
1600
361
49
1369
3721
3844
1024
64
625
100
16
1
121
576
1600
2209
1600
361
49
1369
3481
3844
1156
64
841
256
0
0
81
484
1444
2116
1600
441
25
1156
3364
3969
1521
16
900
400
1
1
49
361
1089
1849
1600
576
0
841
2809
4096
2304
36
729
729
49
0
36
324
900
1681
1849
961
64
400
2116
3844
2916
289
441
729
100
0
25
289
841
1600
1764
961
100
225
1764
3844
3481
529
256
729
100
0
16
256
784
1521
1936
1156
144
169
1681
3969
3481
625
169
576
100
1
25
324
784
1521
1849
1225
225
121
1600
3844
3721
729
169
625
81
4
4
225
729
1444
2116
1444
289
64
1296
3481
3721
961
121
784
196
4
1
81
484
1444
2025
1444
361
49
1225
3364
3844
1225
49
900
324
0
0
100
484
1296
1936
1444
441
16
1156
3364
4096
1600
9
1024
529
4
1
49
441
1225
2025
1764
625
4
1089
3249
4225
2209
25
729
625
36
1
64
400
1024
1849
1764
729
16
441
2116
3721
2809
256
400
576
36
1
36
289
900
1600
1764
1024
100
225
1764
3844
3136
400
324
576
49
1
36
361
841
1521
1849
1089
144
169
1681
3721
3481
625
196
625
100
4
9
225
729
1521
2116
1296
225
100
1521
3721
3600
841
121
676
121
4
1
169
625
1521
2116
1369
289
81
1369
3249
3600
1024
49
576
144
1
1
144
576
1444
2116
1521
400
49
1296
3481
3844
1156
49
900
324
0
0
81
441
1296
2025
1521
400
25
1089
3364
4225
1764
1
961
576
4
9
49
441
1089
1849
1681
676
1
676
2500
3969
2500
121
576
676
36
1
36
361
961
1764
1849
961
81
256
1764
3721
3136
400
324
676
81
4
4
225
729
1521
1849
1225
196
144
1600
3844
3600
729
196
676
121
1
9
256
676
1369
1936
1296
256
100
1521
3600
3600
841
121
784
169
4
0
169
625
1521
2025
1444
289
64
1369
3481
3721
1156
49
784
225
1
0
100
529
1444
2209
1521
400
36
1225
3481
3969
1369
36
900
361
0
4
49
441
1225
1936
1521
529
9
961
3025
4096
2025
4
841
676
16
1
49
361
961
1681
1681
784
36
400
2025
3844
2704
225
400
576
36
0
49
400
841
1444
1681
961
100
196
1764
3844
3364
484
256
676
100
0
25
289
784
1600
1936
1156
169
196
1764
3969
3721
676
196
625
81
4
9
225
729
1600
2025
1444
289
100
1444
3844
3721
841
144
729
144
4
1
169
625
1444
2025
1369
289
81
1369
3481
3721
1024
81
784
225
1
0
121
576
1521
2025
1369
361
49
1296
3481
3969
1296
36
961
400
1
1
64
441
1296
2116
1521
484
16
1089
3364
4225
1764
1
961
576
9
1
64
361
961
1681
1681
729
16
576
2401
3969
2704
169
484
625
49
0
49
361
961
1600
1849
961
81
289
1849
3969
3364
484
324
729
100
0
25
289
784
1600
1936
1089
144
225
1764
3969
3481
625
225
729
121
0
16
289
784
1521
1936
1225
169
144
1764
4096
3600
625
225
729
100
16
1
196
784
1600
2025
1296
225
121
1444
3600
3481
729
169
676
121
4
1
196
625
1444
2025
1444
324
81
1369
3364
3721
1089
64
729
225
0
1
121
529
1369
2025
1444
361
64
1369
3481
3969
1369
49
1024
441
4
0
81
484
1296
2025
1521
441
25
1156
3364
4225
1681
1
900
529
9
1
49
441
1156
1936
1764
676
1
729
2601
4225
2601
121
576
625
36
1
49
361
961
1764
1849
900
49
289
1764
3721
3025
361
361
676
64
1
16
289
841
1600
1936
1089
144
196
1764
3969
3600
576
256
676
100
4
4
225
784
1521
1936
1225
225
121
1600
3844
3721
784
169
729
144
0
4
144
625
1521
2116
1444
289
100
1521
3721
3721
900
121
784
169
4
0
144
576
1444
2116
1444
324
64
1369
3600
3844
1156
81
900
289
0
1
64
484
1369
2116
1600
441
16
1156
3364
4225
1600
9
1024
484
4
1
49
441
1156
1849
1600
576
1
900
2916
4225
2304
36
729
729
36
1
36
400
1024
1849
1849
900
49
361
2116
4096
3025
289
400
625
49
1
36
324
900
1681
1936
1024
121
225
1849
3969
3481
484
256
625
81
1
25
289
841
1681
2025
1225
196
196
1936
4225
3721
625
225
676
100
1
9
225
729
1600
2116
1369
256
100
1600
3844
3721
784
169
784
144
1
1
169
676
1521
2116
1369
256
100
1444
3844
3844
1024
100
784
196
0
1
144
625
1521
2116
1444
289
81
1444
3600
3844
1024
81
900
289
0
1
100
576
1521
2209
1521
361
49
1369
3600
3969
1369
25
961
400
1
1
81
441
1369
2025
1521
529
9
1089
3249
4225
1936
1
900
625
16
1
36
400
1089
1849
1764
784
9
625
2500
4225
2704
144
576
625
36
1
49
361
961
1764
1849
1024
81
256
1936
4096
3249
400
361
676
81
1
16
289
900
1681
2025
1225
169
196
1936
4356
3844
625
225
729
169
0
16
196
676
1521
2025
1225
169
144
1764
3969
3600
676
196
676
100
1
16
225
729
1521
2116
1296
225
121
1600
3721
3721
784
144
729
144
1
1
169
625
1521
2116
1444
289
81
1444
3721
3844
961
100
841
225
1
0
100
529
1444
2209
1521
361
81
1444
3721
3969
1225
36
900
361
0
1
81
484
1444
2116
1600
484
16
1296
3721
4356
1681
9
1024
625
9
4
49
400
1225
2025
1764
625
0
784
2916
4225
2500
81
625
625
36
4
25
361
961
1764
1936
961
81
256
1936
3969
3364
400
361
676
81
1
25
289
841
1600
2025
1156
144
196
1849
3969
3600
625
225
625
81
1
16
256
841
1681
2116
1369
225
144
1764
4096
3844
841
144
676
100
1
9
225
729
1681
2209
1369
289
100
1521
3844
3721
961
121
784
144
4
0
144
576
1521
2209
1521
324
64
1444
3481
3844
1156
64
841
289
0
0
100
484
1369
2116
1600
441
25
1225
3481
4096
1521
16
961
484
1
9
36
400
1156
2025
1681
576
0
961
3249
4356
2304
36
784
729
49
0
49
400
1024
1764
1764
900
36
400
2116
4096
3025
289
400
625
49
0
49
361
961
1764
1936
1024
121
225
1936
4096
3481
441
289
625
49
4
25
324
900
1681
2025
1156
144
196
1764
3969
3600
625
225
676
100
1
9
225
784
1600
2116
1296
196
121
1600
3721
3600
784
169
676
121
4
1
196
625
1444
2025
1444
289
81
1444
3600
3600
900
121
841
196
4
1
100
529
1444
2025
1521
400
49
1296
3481
3844
1225
49
841
324
0
1
64
484
1369
2116
1600
484
9
1089
3249
4096
1764
0
900
529
4
4
49
400
1089
1849
1764
784
9
676
2704
4096
2601
144
529
625
49
0
49
361
961
1764
1936
1024
81
289
1936
4096
3364
400
324
625
64
1
25
289
841
1681
2025
1156
169
169
1764
3969
3600
576
196
625
81
4
9
225
729
1600
2116
1369
256
121
1521
3844
3844
841
144
729
144
4
0
144
625
1444
2209
1521
324
49
1369
3600
3721
1024
64
729
196
4
0
100
529
1444
2116
1521
441
36
1296
3481
3969
1369
36
900
361
0
1
64
441
1369
2025
1600
484
9
1089
3364
4225
1849
0
961
625
16
4
36
361
1024
1849
1764
729
4
625
2500
4096
2704
121
576
676
49
0
64
400
961
1600
1764
961
100
256
1936
3969
3249
361
324
625
64
1
25
289
841
1600
1936
1156
144
225
1849
4096
3481
576
225
676
100
4
9
225
784
1681
2116
1296
196
121
1681
3844
3721
784
144
676
144
1
4
196
625
1444
2025
1444
289
81
1444
3600
3721
900
121
841
196
4
1
100
529
1444
2209
1521
400
49
1369
3721
4096
1369
49
841
324
1
0
81
441
1369
2025
1600
441
16
1156
3364
4096
1600
9
961
576
4
4
25
361
1089
1764
1681
625
1
676
2601
4096
2601
100
576
676
49
0
49
400
1024
1681
1849
900
36
400
2025
3969
3025
324
400
625
64
1
25
289
900
1681
1936
1089
144
225
1849
3969
3481
576
256
676
100
1
9
196
676
1444
2025
1296
225
121
1600
3844
3600
676
169
729
121
4
4
196
676
1444
2025
1369
289
81
1444
3600
3721
961
100
729
196
1
0
144
576
1369
2116
1444
324
49
1296
3481
3721
1225
64
900
324
1
1
64
441
1369
2025
1600
484
16
1156
3364
4096
1600
9
961
529
4
4
36
400
1156
1936
1600
529
0
784
2704
3969
2401
81
676
729
64
1
36
361
900
1681
1849
961
81
256
1849
3969
3249
441
324
784
100
0
25
256
676
1296
1764
1089
169
169
1681
3969
3600
576
225
625
100
4
9
256
841
1600
2025
1296
196
121
1600
3844
3721
729
169
676
121
4
1
169
625
1521
2025
1444
289
81
1369
3481
3600
961
100
784
196
4
0
100
529
1444
2116
1521
361
64
1444
3600
3844
1225
64
900
361
0
4
49
400
1296
2116
1600
484
9
1089
3249
4096
1764
0
961
625
9
9
25
324
961
1764
1764
841
25
484
2209
4096
2809
196
441
676
49
0
49
324
900
1681
1936
1024
81
256
1936
3969
3249
441
289
625
64
4
16
256
841
1600
2025
1156
169
169
1681
3844
3600
625
196
625
81
1
9
196
676
1521
2116
1444
289
100
1444
3600
3721
900
121
676
121
4
0
121
576
1521
2209
1600
324
64
1369
3481
3721
1089
81
784
256
4
1
64
441
1369
2116
1600
484
16
1225
3364
3969
1444
25
961
441
1
4
64
400
1296
1936
1600
576
4
961
3136
4225
2116
16
841
676
36
1
36
361
961
1764
1849
841
36
400
2116
3969
2916
225
441
625
64
1
36
324
900
1681
1849
1024
100
256
1936
4096
3364
441
324
729
81
1
25
289
784
1600
2025
1225
169
196
1764
3969
3721
676
196
625
81
4
4
196
729
1600
2116
1444
289
81
1444
3600
3721
961
121
784
169
9
0
121
529
1444
2116
1521
361
49
1225
3364
3721
1156
64
784
225
4
4
64
484
1369
2209
1600
484
9
1089
3249
3969
1681
1
961
529
1
9
25
361
1024
1764
1681
729
4
625
2500
3969
2601
121
576
676
49
1
36
324
961
1681
1936
1089
81
289
1936
4096
3249
400
361
625
64
1
25
289
841
1600
1936
1156
144
169
1681
3844
3249
484
225
625
64
9
1
169
625
1521
2116
1444
289
100
1444
3721
3721
841
121
729
121
4
4
169
625
1369
1936
1369
324
64
1296
3364
3721
961
100
900
225
4
9
49
441
1369
2116
1521
441
25
1225
3364
3969
1369
36
900
400
0
9
36
400
1156
2025
1600
484
4
900
2809
3721
1936
16
729
625
25
1
49
361
961
1764
1764
841
25
484
2209
3969
2809
196
484
729
64
1
25
289
784
1600
1936
1024
100
256
1849
3969
3364
441
289
625
64
4
16
256
841
1681
2025
1225
196
144
1764
3969
3721
676
196
576
64
4
4
225
729
1600
2116
1444
289
81
1444
3600
3600
841
144
784
121
36
9
100
576
1521
2209
1521
400
49
1296
3481
3721
1024
100
784
196
1
0
100
484
1369
2025
1521
361
49
1296
3481
3721
1156
49
900
324
4
9
64
484
1296
2025
1600
441
9
1024
3136
4096
1764
1
961
529
4
16
25
361
1156
1936
1764
729
4
676
2601
4096
2500
100
625
625
36
4
36
324
1024
1764
1849
1024
81
400
2401
4225
2916
225
484
625
49
4
36
400
900
1600
1849
1024
121
225
1849
3969
3364
441
289
576
36
9
9
256
729
1600
2025
1296
225
121
1600
3721
3364
625
144
529
49
9
1
196
676
1600
2116
1444
324
81
1369
3481
3600
961
121
784
169
9
0
100
529
1444
2209
1600
400
49
1369
3600
3969
1296
36
784
289
0
1
81
484
1369
2116
1600
484
9
1024
3136
4096
1849
0
900
625
9
9
25
324
961
1764
1849
900
25
529
2401
4096
2809
169
529
676
49
1
36
324
900
1600
1849
1024
121
256
2025
4096
3249
400
324
625
64
4
16
256
841
1600
1936
1156
169
196
1764
3969
3481
484
289
676
49
16
1
225
784
1600
1936
1225
256
100
1521
3721
3364
676
169
576
81
4
4
169
676
1444
2209
1444
324
64
1369
3481
3600
900
121
784
144
9
4
81
529
1444
2116
1600
400
25
1225
3481
3969
1296
36
900
324
0
9
49
400
1296
1936
1521
484
4
961
3025
4096
2025
4
900
729
25
4
36
324
961
1681
1849
841
64
361
2025
3969
3025
256
400
625
36
4
25
289
841
1681
1936
1156
121
225
1849
3969
3364
400
289
625
49
4
16
256
841
1600
2025
1369
256
121
1681
4096
3844
841
100
529
64
4
4
225
729
1681
2401
1681
441
25
1369
4096
4356
1296
36
625
169
1
0
121
529
1521
2401
1849
529
16
1296
3844
4225
1444
25
729
256
4
4
100
576
1681
2500
1936
625
4
1225
3600
4624
2116
1
784
484
4
4
49
441
1225
2116
2025
900
9
676
2809
4489
3025
196
484
625
25
1
49
400
1089
2025
2209
1156
100
361
2401
4489
3249
289
361
529
36
1
49
400
1024
1936
2304
1296
100
361
2401
4624
3481
400
289
529
36
4
16
324
1089
2025
2304
1444
196
225
2116
4489
3721
529
225
484
36
4
25
324
900
1764
2209
1444
256
121
1600
4096
3844
729
169
625
64
4
9
196
676
1521
2025
1296
225
100
1444
3600
3481
729
144
625
100
9
4
196
625
1521
2116
1444
324
81
1444
3600
3721
1024
100
784
196
1
0
121
529
1369
2116
1521
400
49
1296
3600
4096
1369
49
900
324
0
1
64
441
1369
2116
1521
484
9
1089
3249
4096
1681
1
961
529
4
9
25
361
1024
1849
1764
729
1
784
2601
3969
2401
81
625
729
49
1
25
324
900
1681
1936
1024
100
256
1936
3969
3136
361
361
625
64
4
25
289
729
1600
1936
1089
169
196
1936
4225
3481
484
289
625
64
4
16
256
784
1600
1936
1225
196
144
1600
3844
3600
676
196
676
100
4
1
169
625
1521
2025
1369
256
100
1521
3600
3481
729
169
676
100
16
0
144
676
1521
2116
1369
289
81
1444
3721
3721
961
121
900
256
1
1
81
484
1444
2116
1521
361
36
1296
3481
3969
1444
36
900
400
0
4
36
400
1296
2025
1600
529
4
961
3025
4096
2025
9
729
625
25
1
36
324
961
1764
1849
961
64
361
1936
3969
3136
324
441
729
81
1
25
289
784
1600
1936
1089
144
225
1849
4096
3481
484
256
676
81
4
9
196
729
1600
2116
1369
225
121
1600
3969
3721
841
144
676
144
1
4
196
676
1521
2116
1444
289
81
1444
3721
3844
1024
81
676
169
4
0
121
576
1521
2209
1521
361
49
1296
3481
3844
1156
64
841
289
0
1
64
484
1369
2116
1600
484
9
1089
3249
4096
1764
0
961
576
9
9
36
361
1024
1764
1681
729
9
529
2500
4096
2704
169
484
625
64
1
36
361
961
2025
2401
1296
100
324
2116
4489
3844
625
225
576
81
1
49
324
841
1764
2209
1369
225
169
1849
4489
4225
841
121
625
100
1
16
289
961
1936
2500
1521
289
144
1849
4489
4225
900
100
576
81
4
9
256
784
1764
2401
1681
400
49
1521
3969
4356
1225
36
576
121
4
0
144
676
1681
2601
1936
576
25
1296
3721
4356
1521
9
676
256
0
0
81
484
1521
2401
1936
625
1
1089
3364
4624
2304
9
729
484
4
4
36
400
1156
2025
2116
1024
36
576
2809
4489
3025
169
484
529
25
1
49
400
1089
2116
2304
1156
81
400
2401
4489
3364
324
324
529
36
1
36
361
1024
1936
2209
1296
169
225
2116
4624
3844
576
225
484
36
4
36
400
1089
1936
2401
1444
196
196
1936
4356
3844
676
169
484
36
4
25
289
961
1849
2401
1521
256
121
1764
4225
3969
841
121
576
81
1
16
256
784
1681
2304
1444
289
81
1600
3969
4225
1089
81
625
144
1
4
225
729
1681
2401
1764
441
49
1444
3969
4356
1369
36
625
169
1
1
144
625
1681
2500
1936
529
16
1369
3969
4624
1681
4
729
324
0
1
81
529
1521
2304
1936
729
0
961
3249
4761
2601
64
625
529
16
0
81
441
1156
2025
2116
1089
64
484
2601
4489
3249
289
400
576
36
0
36
361
1024
1936
2209
1296
144
289
2304
4489
3600
441
289
529
25
1
36
361
961
1936
2209
1369
196
225
2025
4356
3844
625
196
484
36
1
25
324
900
1849
2401
1444
256
144
1849
4356
3969
729
144
529
49
4
16
256
841
1849
2500
1764
361
81
1681
4225
4225
1089
64
576
100
4
9
225
784
1681
2304
1681
361
64
1444
3721
3844
1089
81
729
196
1
0
121
576
1521
2209
1521
361
64
1369
3721
4096
1369
36
900
361
0
1
81
484
1369
2209
1681
484
9
1089
3364
4096
1936
0
841
576
9
9
25
289
961
1764
1849
900
36
441
2209
3969
2809
225
484
625
49
0
36
324
841
1521
1849
961
81
256
1764
3844
3481
529
256
784
144
0
16
225
784
1521
1936
1156
144
169
1764
4096
3721
676
196
729
121
1
9
225
676
1681
2401
1681
361
81
1600
4096
4356
1296
36
529
121
1
1
169
676
1681
2601
1936
576
25
1296
3721
4356
1444
16
676
225
1
0
100
529
1521
2401
1849
576
9
1225
3600
4624
1936
0
841
441
4
4
64
400
1225
2116
1936
900
9
729
3025
4624
2916
144
529
529
25
0
64
441
1156
2116
2209
1156
100
400
2500
4761
3364
289
400
529
25
1
64
400
1089
2025
2304
1225
121
324
2401
4624
3600
400
289
484
25
1
25
361
1024
1936
2209
1369
169
225
2025
4489
3721
576
225
529
36
4
25
324
1024
1936
2401
1444
225
169
1849
4356
3969
676
169
484
49
1
25
324
900
1849
2401
1521
256
121
1681
4225
4225
841
121
576
64
4
16
289
900
1764
2304
1521
324
100
1681
4225
4096
961
81
625
100
4
4
196
729
1681
2500
1764
441
49
1444
3969
4225
1369
25
625
196
1
0
144
625
1681
2500
1936
529
25
1369
3969
4489
1600
9
729
256
1
1
81
529
1521
2500
2025
729
0
961
3364
4761
2704
100
576
529
16
1
64
441
1225
2209
2209
1089
49
576
2809
4900
3136
196
484
484
25
0
64
441
1156
2116
2209
1156
81
441
2500
4489
3249
289
361
529
36
4
36
361
1024
1936
2209
1296
144
256
2304
4624
3721
484
256
529
49
1
36
361
961
1849
2304
1444
225
144
1849
4489
4096
729
144
441
25
9
16
324
900
1849
2601
1681
289
121
1764
4356
4096
841
121
529
100
0
16
225
784
1681
2401
1600
361
81
1600
4096
4225
1089
64
529
81
4
1
196
676
1764
2601
1849
484
36
1296
3844
4356
1521
9
625
225
0
0
81
529
1521
2401
1936
676
4
1089
3600
4624
2116
4
784
484
4
4
25
361
1089
2116
2116
1024
36
625
2916
4624
2916
144
529
529
25
0
64
400
1089
1936
2209
1156
81
400
2601
4761
3481
289
361
576
36
1
49
400
1089
2025
2209
1225
100
324
2209
4356
3481
400
289
529
25
4
25
361
1024
1936
2304
1369
196
225
2116
4489
3721
529
225
484
36
1
36
324
961
1849
2304
1521
225
169
1764
4225
3969
841
121
529
64
1
16
256
784
1681
2401
1600
324
100
1600
4096
3969
961
100
529
100
4
4
225
784
1681
2304
1521
361
81
1521
3844
4225
1225
49
625
169
1
0
144
625
1681
2500
1849
484
36
1369
3844
4225
1444
25
729
256
0
0
121
576
1521
2304
1764
529
9
1156
3600
4489
1936
0
784
441
1
9
36
400
1296
2209
1936
841
25
625
2809
4489
2916
144
529
576
25
4
36
400
1156
2025
2209
1156
81
400
2304
4225
3249
361
324
529
36
4
49
400
1089
1849
2116
1225
144
225
2025
4356
3600
484
225
484
36
1
49
441
900
1521
2025
1369
256
121
1764
4225
3969
729
144
484
49
4
9
225
784
1764
2500
1681
324
81
1521
3969
3969
1024
81
576
81
4
4
225
729
1681
2401
1681
441
49
1369
3844
4225
1369
25
729
225
1
0
121
576
1681
2500
1849
484
25
1369
3844
4356
1521
16
729
256
1
1
100
625
1521
2304
1936
729
0
1089
3364
4489
2304
16
676
484
4
9
36
400
1156
2025
2025
961
25
576
2704
4356
3025
169
484
529
36
1
36
324
1024
2025
2304
1296
121
324
2209
4489
3249
324
361
484
25
4
36
361
1024
1849
2116
1225
144
289
2209
4489
3481
441
289
484
25
4
25
324
961
1849
2304
1369
196
169
1849
4096
3600
625
144
400
25
9
9
256
841
1764
2401
1600
324
81
1681
4225
4096
961
144
729
144
1
4
169
625
1600
2401
1681
361
49
1444
3844
4096
1225
36
676
196
1
0
121
625
1681
2401
1849
484
36
1296
3721
4356
1521
9
676
256
0
0
81
529
1444
2116
1849
625
0
900
3136
4489
2401
36
576
441
4
4
49
441
1225
2116
2116
1089
64
441
2401
4225
3025
256
361
484
16
4
36
400
1089
1936
2209
1225
121
324
2116
4356
3364
361
324
484
16
4
49
361
1024
1936
2209
1296
144
256
2116
4356
3721
484
225
484
16
4
36
324
1024
1849
2304
1369
196
169
1936
4225
3844
625
225
529
49
4
9
169
676
1764
2304
1681
361
64
1600
4096
3969
841
121
625
100
4
4
169
729
1600
2304
1521
361
64
1444
3844
4096
1225
36
676
169
1
1
169
576
1521
2304
1764
484
25
1296
3721
4225
1444
9
676
256
1
4
81
529
1521
2401
1936
676
1
1024
3364
4761
2304
25
729
625
25
4
9
289
1024
2025
2209
1156
64
529
2601
4356
2809
196
361
441
16
1
64
400
1156
1936
2116
1089
81
400
2304
4356
3249
324
324
529
36
1
36
361
961
1849
2025
1089
121
225
1849
3969
3136
361
324
576
49
4
16
289
841
1600
1936
1156
144
196
1681
3844
3364
576
256
625
49
9
4
196
729
1521
2025
1296
225
100
1444
3600
3481
729
169
729
144
9
0
144
576
1444
2025
1369
256
81
1369
3600
3721
900
121
900
225
1
1
81
484
1444
2209
1444
324
64
1369
3481
3844
1156
81
1024
324
1
9
64
441
1369
2025
1521
484
9
1024
3136
3969
1764
1
900
529
4
9
36
361
1024
1681
1681
784
9
529
2304
3844
2601
169
441
576
36
0
49
400
961
1600
1681
900
64
225
1600
3600
3025
400
361
729
100
4
9
196
676
1444
1849
1156
144
169
1681
3721
3249
576
256
676
81
9
1
196
625
1444
1936
1296
256
100
1444
3481
3481
784
144
784
169
9
0
121
576
1444
2116
1521
324
49
1296
3481
3721
1089
81
841
256
4
16
36
441
1369
2304
1764
576
1
1024
3364
4225
1936
1
784
441
0
16
25
361
1225
2116
1936
841
9
729
2704
4225
2500
81
625
576
16
4
36
400
1024
1849
1936
1089
81
324
2209
4225
3249
324
324
576
36
1
36
361
961
1849
2116
1296
169
169
1936
4225
3721
576
196
529
36
16
4
256
841
1764
2304
1444
289
64
1444
3721
3844
900
100
529
64
9
1
169
676
1600
2401
1681
400
64
1369
3481
3721
1089
49
625
121
16
1
100
576
1521
2304
1764
484
16
1156
3481
3969
1296
36
676
196
9
4
81
484
1521
2209
1764
576
4
1024
3249
4225
1764
0
841
441
0
16
36
484
1296
1936
1764
676
1
676
2500
4096
2601
121
529
484
9
9
36
400
1024
1849
1936
1089
100
256
2025
4096
3136
256
361
484
16
4
36
324
961
1849
1936
1156
144
225
1936
4225
3249
400
289
529
36
1
25
225
784
1600
2025
1296
196
121
1600
3721
3364
576
169
484
36
16
1
225
784
1681
2116
1444
289
64
1369
3600
3481
784
121
576
64
16
0
121
625
1521
2116
1296
225
100
1369
3136
2916
529
225
784
121
25
4
81
441
1089
1444
841
144
64
841
2116
2116
529
169
900
225
25
64
1
256
900
1369
900
225
9
576
1764
2209
961
9
900
484
0
81
0
169
576
961
961
484
49
81
729
1764
1681
225
324
729
49
64
25
36
400
961
1089
625
121
36
625
1681
1936
529
121
900
225
25
49
9
289
841
1089
676
169
9
441
1369
1936
961
1
729
441
0
64
0
169
576
961
841
400
36
64
676
1600
1600
225
289
676
64
49
25
36
361
841
1024
625
121
25
576
1444
1764
484
121
841
196
36
64
9
289
784
1089
625
169
4
361
1296
1936
961
1
729
441
1
81
0
169
484
841
841
441
64
49
529
1444
1444
196
289
676
49
100
49
36
361
784
1024
625
100
36
576
1521
1681
484
144
841
196
25
49
9
289
784
1024
625
196
1
400
1296
1849
900
9
784
441
4
100
0
144
576
841
784
361
25
81
625
1521
1369
121
361
625
16
100
36
64
400
841
1024
576
121
25
529
1521
1600
400
196
784
144
64
64
16
256
841
1024
676
144
36
529
1444
1764
676
64
841
289
25
100
1
196
729
1089
784
289
0
324
1089
1764
1024
1
625
441
0
100
1
121
484
841
841
484
64
36
529
1444
1369
225
289
676
49
81
49
25
289
841
961
576
121
16
529
1444
1849
625
81
961
324
25
100
0
225
784
1024
625
225
1
256
1156
1936
1225
4
625
441
0
81
0
144
529
900
900
484
81
36
529
1444
1600
256
225
625
64
81
49
25
361
841
1089
625
144
25
576
1521
1849
529
121
841
225
25
64
1
225
729
1024
729
196
1
361
1156
1764
961
0
676
484
0
144
9
100
529
900
841
484
81
36
529
1444
1444
196
289
676
64
64
25
49
361
784
900
576
144
25
576
1600
1764
529
121
841
225
49
64
4
256
784
1024
625
169
1
361
1156
1849
1024
1
729
484
0
100
1
144
529
784
784
441
49
36
576
1521
1369
144
361
676
36
81
36
49
324
784
900
576
121
16
484
1444
1681
441
144
784
121
64
64
9
256
784
961
676
225
0
324
1156
1849
961
0
676
400
1
121
4
121
529
900
841
441
64
49
529
1369
1444
225
256
676
49
64
36
36
289
784
1024
576
121
9
441
1369
1849
676
64
784
256
25
81
1
256
729
1024
625
169
4
361
1089
1600
841
4
841
576
0
100
1
121
400
729
729
324
36
49
576
1444
1369
196
361
900
144
49
36
16
324
729
841
400
49
49
576
1369
1681
484
121
961
324
16
81
1
196
676
900
625
169
0
225
900
1681
1089
9
625
625
9
81
9
64
400
729
841
484
81
25
529
1369
1521
361
196
841
169
49
81
9
256
729
1024
625
169
9
441
1369
1764
841
9
841
441
4
100
0
196
576
900
784
361
25
81
676
1600
1444
169
289
529
36
64
9
81
400
784
1024
576
121
16
529
1444
1764
441
144
784
144
49
81
1
256
784
1089
676
196
1
400
1225
1849
841
16
784
400
4
81
1
144
529
784
676
361
36
81
625
1444
1369
144
361
625
36
64
16
49
400
784
900
529
100
25
484
1444
1681
361
169
900
196
49
81
4
256
784
1024
676
144
9
441
1369
1764
784
16
784
361
9
100
0
169
576
900
729
361
25
81
676
1600
1369
100
361
576
25
64
16
81
400
784
961
576
100
25
529
1444
1600
361
196
784
121
64
64
9
289
784
1024
625
144
4
441
1369
1936
784
25
784
400
9
100
0
169
576
900
784
324
25
100
729
1600
1369
64
441
625
16
81
16
81
400
784
900
529
81
36
529
1444
1600
400
196
841
169
49
81
4
225
784
961
625
169
4
361
1225
1849
841
9
841
441
4
121
1
144
529
841
784
361
36
64
625
1444
1369
144
361
676
49
81
25
49
361
784
961
529
64
49
576
1444
1681
484
144
841
225
25
64
4
225
784
1024
676
196
1
361
1156
1764
900
4
729
400
4
121
1
144
529
900
841
400
49
49
625
1521
1444
169
361
625
36
81
25
49
361
729
900
529
100
25
484
1444
1681
441
144
841
196
49
100
4
225
784
1089
676
169
9
441
1296
1764
841
16
841
441
4
81
0
169
529
784
729
400
49
49
576
1444
1444
144
361
625
36
64
16
64
361
729
900
529
100
25
484
1444
1681
441
169
841
169
49
100
4
256
729
1024
676
169
9
400
1225
1764
841
16
729
361
9
100
0
169
576
900
729
324
16
100
625
1521
1296
64
441
625
16
81
16
64
400
784
900
529
81
36
529
1444
1600
400
169
784
144
49
81
9
256
729
1024
676
169
9
441
1296
1849
784
16
784
361
9
121
0
169
529
900
784
400
36
100
676
1600
1369
64
441
576
16
81
9
64
361
784
900
529
81
25
484
1444
1681
441
169
841
196
49
100
4
256
784
1024
676
169
4
441
1296
1849
841
25
784
361
9
100
0
169
529
900
784
361
36
100
676
1521
1369
100
400
529
9
100
9
64
400
784
961
576
100
25
484
1369
1521
324
196
729
121
64
64
16
256
784
1024
625
121
9
484
1444
1764
625
64
841
324
25
100
1
169
625
1024
784
289
1
225
961
1681
1156
9
576
576
4
81
4
100
400
729
841
529
100
16
484
1444
1521
289
225
729
121
64
64
9
289
784
961
625
144
16
484
1369
1849
729
49
841
324
9
100
0
196
625
900
729
289
4
169
784
1681
1296
49
484
625
16
81
9
81
400
784
900
529
100
16
484
1444
1764
400
196
841
144
49
81
4
256
784
1024
625
144
4
441
1296
1849
784
25
784
400
9
121
1
169
576
961
784
361
25
81
729
1600
1296
81
441
676
25
81
16
64
361
784
900
529
100
25
529
1444
1681
361
169
841
196
49
81
1
225
729
1024
625
144
4
441
1369
1849
841
16
841
400
4
100
0
169
529
900
841
400
36
100
676
1600
1369
81
441
625
25
64
16
64
361
729
841
529
100
25
529
1444
1600
361
196
784
144
64
64
9
289
784
1024
576
144
9
441
1369
1849
841
25
841
361
4
100
0
169
625
961
784
361
25
100
784
1600
1369
81
441
625
16
81
16
81
441
841
900
529
81
36
576
1369
1600
400
169
841
169
49
64
4
256
784
1024
576
144
9
441
1296
1849
784
16
784
400
9
100
0
144
529
900
784
361
36
81
676
1521
1369
81
441
676
16
81
16
49
361
841
900
529
81
36
529
1444
1600
441
144
841
169
49
64
4
225
729
1024
676
196
4
400
1296
1849
841
9
841
441
4
100
1
169
529
841
784
361
36
64
576
1521
1369
169
324
676
49
81
25
49
289
729
900
625
144
16
484
1521
1681
441
169
900
225
36
81
1
196
729
961
625
196
1
361
1225
1849
961
1
784
441
0
100
1
144
484
841
784
400
49
64
576
1521
1369
169
324
676
64
81
36
36
361
784
961
529
121
16
484
1369
1764
576
121
841
225
16
64
0
225
729
1089
676
196
1
400
1225
1849
900
4
784
441
4
100
0
169
484
841
784
400
49
49
625
1521
1444
169
324
676
36
81
36
36
361
784
1024
576
100
25
484
1369
1681
441
144
784
169
49
100
4
256
784
1024
625
169
9
400
1296
1764
729
25
841
400
9
121
1
144
529
900
784
361
36
64
676
1600
1444
81
441
676
25
81
25
49
361
729
841
529
100
25
484
1444
1681
400
169
841
169
49
81
4
256
784
1024
576
144
4
441
1296
1849
784
25
784
400
9
100
0
169
576
900
784
361
25
100
676
1600
1369
81
441
625
25
64
16
64
361
784
841
484
100
16
484
1369
1600
400
169
784
144
64
81
9
256
784
1024
676
144
9
441
1369
1764
784
25
784
400
9
121
1
169
576
961
784
400
25
121
729
1521
1296
81
400
576
16
81
16
64
361
784
841
484
100
25
484
1369
1521
361
196
784
144
64
64
9
289
784
1024
625
144
9
441
1369
1849
784
25
784
361
9
100
0
169
576
900
784
361
25
81
676
1521
1369
81
441
625
16
100
36
49
361
784
900
484
100
25
484
1369
1521
324
196
784
121
64
64
16
256
784
1024
576
121
9
484
1444
1764
676
64
900
324
16
100
0
169
676
1024
784
256
1
196
900
1681
1156
16
576
529
1
81
4
121
441
784
784
441
64
25
400
1225
1369
256
196
625
81
81
36
25
289
784
900
576
144
9
441
1369
1849
729
36
841
289
25
121
0
225
729
1024
729
256
1
196
900
1600
1089
9
576
484
0
100
9
100
484
900
961
484
81
36
576
1369
1521
324
169
729
121
64
64
16
256
784
1024
625
144
9
576
1444
1849
625
81
961
289
16
100
0
196
676
961
729
225
1
196
961
1600
1089
4
625
484
0
121
9
100
441
784
841
441
81
25
484
1369
1444
256
256
841
121
64
64
16
289
729
900
576
121
9
484
1444
1936
784
36
841
361
16
100
0
196
676
1024
729
289
1
196
900
1681
1225
25
576
529
9
64
1
100
441
841
841
441
64
49
529
1444
1444
289
225
841
144
36
25
16
196
529
784
576
169
4
441
1369
1849
676
64
961
400
16
144
4
144
625
961
784
324
16
121
841
1681
1225
36
529
529
4
64
4
100
400
729
784
441
64
49
576
1369
1521
289
225
841
144
49
64
9
256
729
900
576
144
9
400
1296
1764
729
25
841
400
4
100
0
144
576
841
729
324
25
81
676
1600
1296
81
441
729
36
81
16
49
361
729
841
484
81
36
576
1521
1681
400
196
900
225
36
64
4
225
729
961
576
169
0
324
1156
1764
961
0
784
529
0
100
4
121
441
784
729
361
36
49
529
1296
1296
196
256
625
49
81
25
49
361
784
841
484
100
16
484
1369
1681
529
100
841
256
36
81
1
225
729
1024
676
196
1
324
1156
1849
1024
0
729
484
0
100
1
144
484
841
784
400
49
64
529
1444
1444
169
324
676
49
64
36
36
289
784
900
529
121
16
484
1369
1681
484
121
841
196
49
81
0
225
729
1024
729
196
0
289
1156
1849
1024
0
729
441
1
121
4
121
529
900
784
400
49
49
529
1369
1296
144
289
576
36
81
25
49
324
729
900
529
121
16
484
1444
1681
484
121
900
196
36
81
4
225
784
961
676
196
1
361
1225
1764
961
0
729
484
0
81
4
121
441
729
784
441
81
36
576
1444
1444
256
289
784
81
81
36
25
289
729
961
576
121
9
484
1369
1764
625
64
841
324
25
100
0
196
676
961
784
256
1
196
900
1681
1225
36
529
484
9
64
1
121
441
841
841
441
49
25
441
1296
1681
400
169
784
169
25
25
16
256
729
961
576
121
9
484
1296
1764
729
25
729
289
25
100
0
169
676
961
784
361
25
100
729
1600
1296
49
484
529
4
81
9
121
441
729
784
441
100
25
484
1444
1681
361
225
841
144
49
64
9
256
784
961
576
144
9
441
1369
1936
841
25
841
400
9
100
0
169
576
900
676
324
25
81
625
1521
1296
81
441
676
36
81
25
49
324
676
841
484
100
16
484
1444
1600
400
169
841
196
49
100
4
256
784
1024
625
144
9
441
1225
1681
729
16
729
361
9
121
1
144
625
961
841
400
36
100
676
1600
1369
100
400
576
16
81
9
64
400
784
841
529
100
25
529
1444
1681
400
169
784
144
64
64
16
289
784
1024
576
121
9
441
1369
1764
676
49
900
361
9
100
0
144
529
841
729
289
16
100
676
1600
1225
36
441
529
9
64
9
49
324
729
841
529
100
16
484
1369
1600
361
196
841
169
36
64
1
225
676
900
576
169
4
400
1296
1764
841
16
841
400
1
81
0
144
529
784
729
361
49
64
576
1521
1369
144
361
676
36
81
25
49
324
784
841
529
121
25
484
1444
1681
441
144
841
169
49
81
4
225
729
961
676
169
0
289
1089
1764
1024
0
729
484
1
100
1
144
529
841
784
400
49
64
576
1521
1369
144
361
676
36
81
25
49
361
729
900
529
100
16
484
1444
1681
441
144
841
196
49
100
4
256
784
1024
625
169
4
400
1296
1764
784
16
784
441
4
100
1
144
529
841
784
361
36
81
676
1521
1296
100
400
576
16
81
16
64
400
841
841
484
100
16
529
1369
1521
361
196
784
144
49
64
4
256
784
961
529
144
9
361
1225
1764
841
16
729
361
9
121
0
169
576
900
784
361
25
64
625
1521
1369
121
400
625
25
81
16
64
361
841
900
529
81
25
484
1369
1681
441
144
841
196
49
81
4
225
784
1024
676
169
4
400
1225
1764
900
9
729
400
9
121
1
144
576
841
784
361
36
49
529
1444
1369
169
324
625
36
64
16
64
361
729
841
529
121
16
529
1521
1681
400
169
784
169
64
64
4
256
841
1024
676
196
4
400
1225
1764
841
9
729
361
9
121
1
144
576
841
841
400
49
49
576
1444
1444
144
324
625
25
100
49
49
400
841
900
529
100
25
529
1444
1600
441
144
784
169
49
64
4
256
841
1024
676
169
4
400
1225
1764
841
9
784
441
4
121
1
169
529
841
784
361
36
49
576
1521
1369
144
361
676
36
81
25
36
361
784
961
576
144
16
484
1444
1764
441
169
900
225
36
81
1
225
784
1024
576
144
9
441
1369
1764
784
16
841
441
1
100
1
144
576
841
729
324
25
81
625
1444
1369
121
361
576
16
81
16
81
441
784
900
529
100
16
484
1369
1521
361
169
784
144
64
64
9
256
784
1024
576
144
9
484
1369
1764
729
36
784
361
16
100
0
196
625
900
784
289
9
144
784
1600
1225
49
529
576
9
81
9
81
400
784
961
576
121
25
529
1444
1600
400
144
729
144
36
49
9
289
784
1024
625
144
4
441
1296
1849
900
9
784
400
4
121
0
169
529
841
784
361
36
64
576
1444
1369
144
324
576
25
64
16
64
400
841
900
529
100
25
529
1444
1681
441
144
784
169
49
64
16
289
784
1024
676
169
4
484
1444
1849
784
36
841
361
9
100
0
169
576
900
784
324
25
100
676
1600
1369
81
441
576
16
81
9
81
400
729
841
484
100
25
484
1369
1681
400
169
729
121
36
49
16
289
784
961
625
121
16
484
1369
1681
625
36
784
289
16
100
0
196
676
1024
784
256
1
256
1024
1764
1089
4
625
529
1
81
4
121
484
784
841
484
81
36
529
1444
1521
289
225
784
81
81
64
16
324
841
1024
576
121
16
484
1369
1764
576
100
841
256
25
81
1
225
729
1024
729
196
1
324
1024
1681
961
0
625
441
1
121
4
121
484
784
841
484
64
36
529
1369
1444
225
289
729
81
64
49
16
324
784
1024
576
121
16
529
1444
1764
529
100
841
256
25
81
1
225
729
1024
729
196
1
324
1156
1764
961
0
676
400
1
121
4
121
484
841
841
441
81
25
484
1296
1369
225
256
625
49
100
49
25
361
841
1024
576
121
16
484
1444
1681
441
144
784
169
64
81
4
256
841
1024
676
196
1
400
1225
1849
900
9
729
400
9
100
0
169
529
841
841
400
49
64
576
1600
1444
144
361
625
25
81
16
49
400
841
900
529
121
25
484
1444
1681
441
121
784
169
36
64
9
256
784
1024
676
196
1
361
1225
1849
961
1
784
400
4
121
1
144
576
841
841
400
49
49
576
1444
1444
169
289
625
36
81
36
49
324
841
961
576
121
16
529
1444
1764
484
100
784
196
36
64
4
225
784
1089
676
196
1
361
1225
1849
961
1
729
484
4
121
1
144
529
841
784
400
49
49
529
1444
1369
169
289
625
36
81
36
36
324
784
961
529
121
16
484
1444
1764
484
121
900
196
49
81
1
225
784
1024
625
169
1
361
1225
1849
900
4
784
484
0
100
1
121
529
784
784
441
49
49
576
1521
1369
169
324
676
49
81
25
49
324
784
900
529
100
25
484
1444
1764
484
121
841
225
36
81
4
225
729
961
625
196
0
324
1156
1764
961
0
729
441
0
100
1
121
484
784
841
441
64
49
576
1369
1444
196
289
676
49
81
36
25
324
784
961
625
144
16
484
1444
1764
529
100
841
225
36
81
1
225
729
1024
676
225
0
324
1089
1764
961
0
729
484
0
100
1
121
484
784
784
400
64
36
529
1369
1444
225
256
676
64
81
36
25
289
729
900
576
121
16
484
1444
1764
529
100
841
256
36
81
1
225
729
1024
729
169
1
324
1156
1764
961
0
729
529
0
100
4
121
484
784
841
441
64
25
484
1296
1444
225
256
676
49
64
36
36
289
784
961
576
144
16
529
1521
1849
529
121
841
256
25
64
1
225
729
1024
676
196
1
361
1156
1764
961
1
729
484
0
100
4
100
484
841
841
441
64
36
529
1369
1444
225
256
676
64
64
36
25
289
784
961
576
121
16
529
1444
1764
529
100
841
256
25
81
1
225
729
961
676
196
0
256
1024
1681
1089
4
625
529
0
100
4
121
484
841
841
441
64
36
576
1444
1444
196
324
784
64
100
64
16
256
676
900
625
169
4
400
1444
1849
676
64
900
289
25
100
0
196
676
961
729
256
0
196
900
1681
1156
16
576
484
4
81
1
121
484
784
841
484
81
25
484
1444
1681
324
225
841
144
49
49
16
256
729
900
576
144
16
484
1444
1764
625
49
841
324
25
100
0
225
676
961
676
225
1
225
961
1681
1225
16
576
529
4
100
9
100
441
841
900
529
81
36
529
1444
1444
256
256
729
64
64
49
25
324
784
961
576
144
9
484
1444
1849
729
64
900
324
16
100
0
196
676
961
784
289
4
196
900
1681
1296
49
484
529
9
64
4
100
441
784
900
529
100
25
484
1369
1521
324
225
841
121
81
100
9
289
841
961
576
121
16
484
1369
1764
676
49
841
289
25
100
0
225
729
1024
784
256
0
225
1024
1681
1089
4
576
441
0
100
4
100
484
841
900
484
64
36
576
1444
1521
225
289
729
64
64
36
25
289
729
900
625
169
9
441
1369
1764
625
81
841
256
36
121
0
196
729
1089
841
289
0
289
1024
1764
1089
4
576
484
1
100
4
121
529
841
841
441
64
49
576
1444
1444
225
289
729
81
64
36
25
289
729
961
576
121
16
484
1369
1764
576
81
841
256
25
100
0
196
729
1024
729
225
0
256
961
1681
1089
9
625
529
4
81
1
144
484
729
676
400
81
25
441
1369
1600
324
225
729
81
49
36
25
289
784
961
576
121
9
484
1444
1849
576
81
729
196
49
100
0
225
729
1089
784
324
9
196
900
1849
1369
36
576
576
16
64
4
81
441
961
1089
529
49
100
676
1521
1521
196
324
729
81
81
49
25
289
729
900
576
144
9
529
1521
1849
576
100
841
256
36
100
0
196
729
1089
729
256
0
289
1089
1681
961
0
729
484
0
121
4
100
441
841
841
441
64
49
529
1369
1369
196
289
729
49
100
64
25
361
729
841
484
121
4
484
1521
1936
625
121
900
324
25
100
1
196
729
1024
729
196
1
361
1225
1849
900
1
729
484
1
100
1
144
529
841
841
400
49
64
576
1521
1369
169
361
729
49
100
49
36
400
841
961
576
100
25
529
1444
1764
441
144
841
225
36
81
1
256
729
1024
676
144
9
441
1296
1849
841
9
784
441
0
64
0
121
400
625
784
441
81
36
529
1369
1444
196
289
676
49
81
36
36
324
784
841
529
121
16
441
1369
1764
529
121
900
225
36
100
0
196
784
1089
676
196
4
400
1225
1849
900
1
784
484
0
100
1
144
484
784
784
400
64
49
576
1521
1521
169
324
676
49
81
36
25
361
841
961
625
144
25
529
1521
1764
484
144
841
196
49
81
4
256
784
1089
625
144
4
400
1296
1849
900
9
784
361
4
100
0
169
529
841
784
400
49
64
625
1521
1369
121
361
576
16
121
25
64
400
841
961
529
121
25
529
1369
1521
400
121
729
144
49
64
9
289
729
900
576
169
1
324
1089
1764
1024
0
784
484
1
144
9
121
529
841
841
441
64
36
484
1369
1444
169
324
676
36
81
36
49
361
729
900
529
100
16
484
1444
1764
441
144
841
196
49
100
4
256
841
1024
625
169
4
400
1225
1849
841
16
784
361
9
121
4
144
576
900
784
361
36
49
625
1521
1296
100
361
529
16
81
16
81
400
784
841
484
100
16
484
1369
1600
361
196
841
169
36
64
4
196
729
961
625
144
9
361
1156
1764
900
4
729
441
1
100
1
121
484
841
784
484
64
36
484
1521
1681
256
289
676
49
81
25
49
361
729
900
576
144
9
441
1369
1764
529
100
900
225
36
81
1
196
676
961
676
196
0
256
1024
1764
1024
1
676
484
0
100
1
144
484
841
784
441
49
36
484
1369
1444
196
289
729
64
81
49
36
289
784
961
625
144
9
484
1444
1764
625
49
841
324
9
100
4
100
625
961
841
324
9
169
841
1681
1225
36
529
529
1
81
9
81
400
841
961
576
100
25
484
1369
1521
324
169
841
144
49
64
4
225
784
1024
576
144
9
441
1369
1849
784
25
841
400
4
100
1
144
576
900
784
361
25
81
729
1600
1369
81
441
729
36
81
25
49
361
784
900
529
100
25
484
1369
1600
400
196
841
121
100
100
4
289
784
1024
625
144
9
484
1444
1764
625
81
841
289
25
121
0
169
676
961
784
289
4
144
784
1600
1225
36
529
625
16
81
9
49
324
729
900
576
121
16
529
1521
1600
324
256
900
169
49
64
9
256
729
900
576
144
9
441
1369
1936
784
16
784
400
4
100
0
169
576
900
729
324
25
64
576
1444
1444
144
361
625
36
64
9
81
400
784
900
529
100
25
529
1444
1764
441
144
784
169
49
64
9
256
784
1024
676
196
4
441
1369
1849
784
16
841
441
4
100
0
144
484
784
729
361
36
81
625
1521
1296
81
441
676
25
100
25
49
361
784
900
576
100
16
529
1369
1521
324
196
784
121
64
81
9
289
784
961
625
144
9
361
1296
1849
841
9
841
441
1
100
0
169
529
841
784
361
36
64
576
1521
1369
144
361
676
36
81
25
49
324
784
841
529
121
25
529
1521
1681
441
169
900
196
49
81
9
256
729
961
625
169
1
361
1225
1849
961
4
784
441
1
100
1
144
484
841
784
400
49
49
529
1369
1369
196
289
625
36
100
36
49
361
729
900
529
100
25
529
1444
1600
400
169
784
169
64
64
4
225
729
1024
625
169
1
361
1225
1849
841
9
841
441
4
121
1
169
529
841
784
400
49
64
576
1521
1444
144
324
625
36
81
25
49
324
729
900
529
100
25
484
1444
1681
441
144
841
196
36
64
1
196
676
900
676
196
1
289
1089
1764
1024
0
676
484
0
100
1
121
529
900
841
400
49
64
576
1444
1369
169
324
676
49
81
36
36
289
729
900
576
144
16
529
1444
1681
529
144
841
225
36
81
0
225
784
1024
676
225
0
289
1089
1681
900
1
729
529
1
121
9
100
441
784
841
441
64
36
529
1444
1521
225
289
676
49
121
81
36
361
841
1024
576
144
16
484
1444
1681
400
169
841
169
49
81
4
256
729
1024
676
169
4
400
1225
1764
841
9
729
441
1
81
1
144
529
784
729
361
49
49
576
1444
1369
196
289
625
36
81
36
49
361
784
961
576
100
25
529
1369
1681
441
144
841
169
64
100
1
256
784
1089
729
225
1
400
1225
1849
900
9
784
529
0
81
1
100
441
784
784
400
49
49
576
1444
1444
196
324
729
49
81
36
25
324
784
961
625
144
16
484
1444
1681
484
144
841
196
49
100
1
225
729
1024
625
169
1
361
1225
1764
841
9
841
441
4
100
1
169
529
841
784
361
36
64
576
1521
1369
144
361
729
36
81
25
49
324
729
841
529
121
16
484
1444
1681
441
144
841
169
49
81
4
225
784
1024
625
169
4
361
1296
1764
784
9
841
400
4
121
1
144
529
841
784
400
49
49
576
1521
1444
169
361
676
49
81
36
49
361
784
900
576
100
25
529
1444
1681
400
169
841
169
49
81
4
225
729
1024
625
169
4
361
1225
1764
841
9
784
441
1
100
0
121
484
841
784
400
49
64
625
1600
1444
144
361
676
49
81
16
64
361
729
900
529
100
25
529
1444
1681
400
169
900
196
49
81
1
225
729
1024
676
169
4
400
1296
1849
900
4
841
441
1
100
1
144
484
841
841
400
49
64
625
1600
1444
169
361
676
49
64
16
49
361
784
841
529
121
16
484
1444
1681
441
169
841
196
49
81
1
256
729
1024
625
169
4
400
1296
1849
841
4
841
441
1
100
0
144
484
784
784
400
49
64
576
1521
1444
169
361
676
49
81
25
49
361
729
900
529
81
25
484
1369
1764
529
121
900
225
36
100
1
225
784
1024
625
196
4
361
1225
1849
841
4
784
441
0
100
0
144
484
784
729
361
36
49
576
1444
1369
169
324
729
49
64
36
36
289
729
961
576
121
16
441
1369
1681
484
121
841
196
49
100
1
225
784
1089
676
169
4
400
1225
1764
841
9
784
441
4
121
1
144
484
784
729
400
49
36
529
1369
1369
144
289
625
25
81
36
36
361
784
961
529
121
36
529
1369
1600
400
169
841
196
36
81
1
225
676
900
625
196
1
361
1156
1764
961
1
729
441
0
100
1
144
484
784
784
400
49
49
529
1369
1369
196
289
625
49
81
36
36
324
784
900
529
121
16
484
1444
1764
484
121
841
225
49
81
1
225
729
1024
729
196
1
361
1156
1764
961
1
729
441
1
121
1
144
529
784
784
400
49
49
484
1369
1369
196
289
625
49
81
36
36
324
784
900
529
100
25
484
1369
1681
484
121
841
196
49
81
1
225
729
1024
676
196
1
324
1156
1764
961
1
784
441
1
121
1
144
529
784
784
400
49
49
529
1444
1444
169
324
676
49
81
36
49
324
729
900
529
100
25
484
1369
1681
484
121
841
196
36
81
4
225
784
1024
625
169
4
361
1225
1764
841
1
784
484
0
100
1
144
484
841
784
400
49
49
576
1369
1369
196
289
676
49
64
36
25
289
784
961
529
121
25
529
1521
1681
441
169
900
256
36
81
1
225
729
1024
625
169
1
361
1156
1764
961
4
784
441
0
81
1
121
441
784
784
400
64
49
576
1369
1369
196
289
729
81
81
49
16
289
729
900
576
121
16
484
1369
1764
576
100
900
256
36
81
0
225
729
1024
676
196
0
289
1024
1681
961
0
729
529
0
100
4
100
441
729
784
441
64
36
529
1444
1444
225
256
676
64
64
36
36
289
784
961
576
121
16
529
1369
1764
576
81
841
289
36
100
0
196
729
1024
729
225
1
225
1024
1764
1089
4
625
529
0
81
1
121
484
784
784
441
81
36
529
1444
1444
256
256
729
100
64
49
16
289
676
841
529
144
9
484
1444
1849
625
81
900
289
25
100
0
196
729
961
729
225
1
169
841
1681
1156
36
529
529
1
81
1
121
441
784
841
484
81
36
529
1369
1521
289
256
841
144
49
64
9
256
729
900
576
144
9
441
1296
1849
784
25
841
361
9
100
0
169
625
900
729
289
16
100
729
1600
1296
64
484
625
16
81
16
81
441
841
841
484
81
25
484
1369
1600
361
196
841
169
49
64
4
225
729
961
625
169
1
361
1225
1849
961
4
784
441
4
100
0
169
529
841
784
361
49
64
576
1521
1369
144
361
676
36
81
25
49
361
729
900
529
100
25
529
1444
1681
441
144
841
196
36
81
1
256
784
1089
676
196
1
361
1156
1764
900
4
729
400
4
100
1
169
529
900
784
400
49
49
576
1444
1444
169
289
576
25
100
25
49
400
841
900
529
100
25
529
1444
1600
400
169
841
169
49
100
4
289
784
1024
676
144
9
441
1296
1849
729
36
841
324
16
121
1
169
625
961
784
324
16
121
729
1600
1225
36
529
484
4
81
9
81
361
784
841
484
100
25
484
1369
1521
324
196
784
121
64
64
9
289
841
961
576
144
16
441
1296
1849
784
36
841
324
16
121
0
196
676
961
729
256
9
144
784
1600
1225
49
484
576
9
81
4
100
441
784
900
529
100
25
484
1369
1521
289
196
729
121
64
81
9
256
784
961
576
121
9
441
1296
1849
784
16
784
400
4
100
0
169
576
900
729
324
25
81
625
1521
1296
100
400
529
9
100
16
81
441
841
961
529
100
36
576
1444
1600
361
196
784
144
64
49
16
256
784
1024
576
144
9
484
1444
1764
625
49
841
289
25
100
0
196
676
961
729
289
4
196
841
1600
1225
36
529
529
4
81
4
100
441
784
841
484
81
36
529
1369
1521
324
256
900
169
49
49
9
289
729
900
529
100
16
441
1296
1764
729
36
841
361
16
100
0
196
625
900
729
289
16
144
784
1681
1156
36
529
529
1
81
1
121
441
784
841
441
64
49
576
1369
1444
324
225
784
121
64
49
16
289
784
961
576
144
9
441
1369
1764
676
49
900
361
9
100
1
144
625
900
784
289
16
121
729
1600
1296
49
484
576
4
100
9
100
441
784
841
484
81
25
484
1369
1521
324
225
784
121
64
64
16
289
784
961
576
121
9
441
1369
1764
729
36
841
361
9
100
0
169
576
900
784
324
16
121
784
1681
1296
49
484
625
9
100
16
81
441
841
900
484
81
25
484
1369
1521
361
196
784
144
49
64
9
256
784
961
529
144
9
441
1296
1764
729
25
784
400
9
100
0
169
576
841
729
324
25
81
625
1521
1369
100
400
625
25
64
9
64
361
729
900
529
100
25
529
1444
1600
400
169
784
144
49
64
9
256
729
961
625
169
4
400
1225
1849
900
4
784
441
1
100
0
169
529
841
784
361
36
64
529
1444
1369
144
324
676
36
100
49
36
361
784
961
529
121
25
484
1444
1600
400
169
841
169
49
81
4
256
729
1024
625
169
9
400
1225
1764
784
16
784
400
9
121
1
169
529
841
784
361
36
64
625
1444
1296
121
400
625
25
81
16
64
361
784
841
484
100
16
484
1369
1600
361
144
841
144
64
81
9
289
784
1024
576
144
9
441
1369
1764
784
16
841
400
9
121
0
169
576
900
784
361
36
81
625
1521
1369
121
400
625
25
81
16
64
361
784
900
529
100
25
529
1444
1600
361
169
784
144
49
64
9
256
784
1024
576
121
9
484
1369
1764
729
25
784
400
9
121
1
144
576
841
729
361
49
64
576
1444
1369
121
361
625
25
64
9
64
361
729
841
529
100
16
484
1444
1681
400
144
784
144
49
81
9
289
784
1024
576
144
9
400
1296
1764
784
16
784
361
16
100
0
169
625
961
784
361
25
100
729
1681
1296
64
441
576
9
81
16
81
400
784
900
529
100
16
484
1369
1600
400
196
841
144
49
64
4
256
784
1024
576
121
9
441
1369
1764
729
36
841
361
16
100
0
169
625
900
729
324
16
100
729
1600
1296
49
484
576
4
81
9
100
400
784
841
484
100
25
484
1369
1521
324
225
841
144
64
64
4
256
784
1024
625
144
16
484
1444
1764
676
49
841
289
16
100
0
169
676
1024
784
289
1
225
900
1681
1156
16
576
529
4
81
4
121
484
784
841
484
100
25
484
1369
1521
256
256
729
64
81
64
16
289
729
900
529
121
9
441
1369
1681
676
49
841
324
16
121
0
196
676
961
784
289
9
144
784
1600
1225
49
484
576
4
81
9
81
400
784
900
529
100
16
484
1369
1521
361
196
841
169
49
81
1
256
729
961
625
169
4
400
1225
1849
900
4
784
484
0
100
1
144
576
784
676
324
36
49
576
1521
1369
169
324
676
49
64
25
64
361
729
841
484
121
25
484
1444
1600
441
144
841
196
49
81
4
256
729
961
625
169
1
324
1089
1764
961
0
676
441
1
100
1
121
484
841
784
441
49
49
576
1444
1369
169
324
676
64
81
25
36
324
784
961
576
121
16
529
1369
1764
484
121
841
196
36
100
1
225
784
1024
676
196
1
361
1225
1764
900
4
729
441
1
100
1
144
529
841
841
400
49
49
576
1444
1444
169
324
625
25
100
36
49
361
841
961
576
100
25
529
1444
1681
400
169
841
169
49
81
4
256
729
1024
676
169
4
441
1296
1849
841
9
841
441
1
100
0
144
529
841
784
361
36
49
576
1444
1369
144
361
625
36
81
25
49
361
784
961
529
121
25
484
1369
1600
400
144
841
169
49
100
4
256
729
1024
625
169
4
441
1296
1849
784
16
784
400
9
100
0
169
576
900
729
324
25
81
625
1521
1296
100
441
576
16
81
16
64
361
729
841
484
81
25
441
1296
1521
400
169
784
144
64
81
9
289
784
1024
625
144
9
400
1296
1764
841
16
841
441
1
100
1
169
576
841
729
324
25
81
676
1521
1296
100
441
576
25
64
25
64
361
729
841
484
100
25
529
1369
1600
361
196
841
144
49
64
4
225
729
961
625
169
4
400
1296
1849
784
16
784
400
9
100
0
169
529
841
784
361
25
81
676
1521
1296
81
441
676
36
81
36
36
324
784
900
529
100
25
529
1444
1600
400
196
841
169
49
81
4
256
729
1024
625
169
4
400
1225
1849
841
16
784
400
4
100
1
144
529
900
784
361
36
81
676
1600
1296
81
441
676
36
100
25
49
400
784
900
529
100
25
484
1369
1521
361
225
841
144
64
81
9
256
729
961
625
169
4
400
1225
1764
841
16
784
400
4
100
0
144
529
900
729
361
25
81
676
1521
1296
100
441
625
25
81
25
64
361
729
841
484
100
25
484
1369
1600
400
169
784
169
64
81
4
256
784
1024
625
169
4
400
1296
1764
729
25
784
400
9
121
1
144
529
900
784
361
36
64
676
1521
1369
100
400
625
25
81
16
64
361
784
841
484
100
16
484
1369
1600
361
169
841
144
64
81
4
256
784
1024
576
121
9
441
1296
1681
729
36
841
361
4
100
1
144
576
841
729
324
25
81
729
1600
1296
64
484
676
16
100
25
64
400
784
841
484
100
25
529
1444
1600
324
225
900
169
49
81
4
225
784
961
576
144
9
400
1296
1764
784
16
784
400
9
121
1
144
576
900
841
361
36
64
676
1600
1369
100
441
676
36
100
16
49
361
784
841
484
81
36
529
1444
1521
324
225
841
169
49
64
4
225
784
1024
625
144
9
484
1369
1764
729
36
841
324
16
121
1
169
576
961
784
324
16
100
729
1600
1296
49
529
625
16
81
9
64
361
729
784
484
81
25
529
1444
1521
324
196
900
196
36
64
1
225
729
961
625
169
4
400
1296
1849
841
9
841
484
0
121
4
121
484
841
784
400
49
64
625
1521
1444
144
361
676
49
64
25
36
361
784
961
576
121
25
529
1521
1681
441
144
900
225
36
81
1
225
729
1089
676
196
4
361
1296
1849
841
9
841
484
0
121
9
121
484
841
784
361
49
64
625
1521
1369
144
361
676
49
81
36
36
324
784
961
576
121
25
576
1444
1600
400
196
900
225
36
81
0
225
676
961
625
169
4
400
1225
1764
900
4
841
484
0
121
9
121
529
841
841
400
49
64
576
1521
1369
169
361
729
64
81
49
25
324
784
961
576
121
25
529
1444
1764
441
144
900
256
36
81
1
225
784
1024
676
169
4
361
1156
1764
961
1
784
484
0
100
1
144
484
784
784
361
36
49
576
1444
1369
121
361
676
49
81
49
25
289
784
961
529
121
25
529
1444
1600
441
144
900
225
49
121
0
225
784
1024
625
169
1
361
1156
1764
841
9
784
484
1
121
4
100
441
784
784
400
49
64
625
1521
1296
121
361
676
49
81
36
36
289
729
900
576
100
25
484
1444
1600
361
169
900
196
49
81
4
256
784
1024
676
144
9
441
1296
1849
784
25
841
400
9
121
1
144
576
900
841
361
25
81
676
1600
1296
81
484
729
49
81
36
36
289
729
900
576
121
25
576
1444
1681
361
196
900
169
49
81
4
256
729
961
625
144
9
361
1225
1849
841
9
841
529
0
121
4
100
441
784
784
400
49
64
625
1444
1369
169
361
729
49
81
49
25
324
784
961
625
144
16
529
1521
1681
484
121
900
225
36
100
1
225
784
1089
676
169
4
400
1225
1849
841
9
784
484
1
100
1
121
529
841
784
361
36
64
625
1521
1369
121
441
676
36
81
36
36
324
784
900
529
100
25
576
1444
1681
400
169
900
225
36
100
1
225
841
1024
676
169
9
441
1369
1764
729
36
900
441
9
144
4
121
529
900
784
361
25
81
676
1521
1369
81
484
729
36
100
49
36
324
784
961
529
100
25
576
1521
1521
324
225
900
169
49
81
4
256
729
1024
625
169
9
400
1369
1764
729
36
841
400
4
100
1
144
576
900
729
289
16
100
729
1600
1225
49
529
625
16
100
25
64
400
784
900
484
64
49
576
1521
1521
256
225
841
144
64
81
9
289
784
1024
576
144
16
441
1369
1764
625
64
961
361
16
121
4
144
625
1024
784
289
1
196
900
1600
1156
9
625
625
4
100
16
49
400
784
900
529
81
36
576
1444
1521
256
256
841
144
64
81
9
289
784
1024
576
121
16
484
1444
1764
576
100
841
289
25
100
0
196
729
1089
729
225
0
324
1156
1764
900
1
841
529
0
121
9
100
441
784
784
361
36
49
576
1444
1369
169
361
784
64
81
49
25
324
784
1024
576
100
25
576
1521
1681
441
169
900
225
49
100
1
225
784
1024
625
169
4
400
1296
1849
841
9
900
484
1
121
4
121
529
841
784
361
36
64
676
1521
1369
121
400
729
49
81
36
36
324
784
961
529
121
36
576
1521
1681
361
196
900
196
49
100
1
256
841
961
625
169
4
400
1296
1849
841
9
900
484
1
100
4
121
484
841
784
361
36
64
625
1521
1369
121
400
784
64
81
49
25
324
784
1024
576
100
25
576
1521
1681
441
169
900
196
49
100
1
225
784
1089
625
169
4
400
1296
1681
784
16
784
441
4
121
1
144
529
900
841
361
36
81
676
1521
1369
121
441
625
25
100
25
49
361
784
900
484
100
25
529
1444
1600
324
225
841
144
64
81
4
256
784
1024
625
144
16
484
1369
1764
625
81
961
324
25
144
1
169
676
961
784
324
9
144
841
1681
1156
25
576
576
4
121
25
64
441
841
900
529
81
49
576
1444
1444
225
289
841
121
64
64
4
256
784
1024
576
100
25
529
1444
1681
529
121
900
289
25
121
0
196
729
1089
729
225
0
324
1089
1681
961
0
784
529
0
121
16
100
484
841
784
441
49
36
576
1521
1369
169
361
784
64
81
64
16
324
784
961
625
121
25
529
1521
1681
441
169
961
225
36
100
0
196
729
1024
676
196
4
361
1225
1849
841
9
841
529
1
121
9
100
484
841
841
400
36
81
625
1521
1444
121
400
784
49
81
49
36
324
784
961
529
100
25
529
1369
1600
400
169
900
196
49
100
0
225
784
1024
625
144
4
400
1296
1764
784
25
900
484
1
100
1
144
576
841
729
324
25
100
729
1600
1296
81
484
729
36
81
36
36
324
784
900
484
100
25
529
1444
1600
361
225
841
169
64
100
1
225
841
1024
625
169
4
400
1369
1764
729
36
900
361
9
121
1
169
576
900
784
361
25
100
729
1681
1296
64
484
676
25
100
25
49
361
784
841
484
81
36
576
1521
1521
289
256
841
144
64
81
4
256
784
1024
625
144
9
441
1369
1764
676
49
900
361
9
121
1
169
576
900
729
324
16
100
676
1600
1296
49
529
676
16
100
36
49
400
784
841
441
81
36
576
1521
1521
256
256
900
169
64
81
4
256
784
1024
625
144
9
484
1444
1764
729
36
900
361
4
100
1
144
576
900
784
361
25
100
729
1600
1296
49
484
625
16
81
16
64
400
784
841
441
81
36
576
1521
1521
289
256
900
169
49
81
4
225
729
961
625
144
9
400
1369
1764
784
25
841
441
4
100
0
144
529
841
729
289
16
100
676
1521
1225
49
529
625
16
121
25
81
484
841
841
441
49
64
625
1444
1369
256
256
900
169
64
121
1
196
729
961
625
144
9
441
1296
1764
729
36
900
441
9
121
1
144
576
900
784
324
25
81
625
1600
1296
81
484
729
36
81
25
49
361
729
841
484
100
36
576
1444
1600
361
225
961
196
49
100
0
225
784
1024
625
144
9
441
1296
1764
729
25
841
400
9
121
0
169
576
961
784
361
25
121
784
1681
1296
64
529
625
16
100
25
49
400
784
841
484
81
49
625
1444
1521
289
256
900
169
49
81
4
256
729
961
625
169
9
400
1369
1764
784
25
841
441
4
121
1
144
529
900
784
361
25
81
676
1600
1296
81
484
784
64
81
49
25
324
784
900
529
81
36
576
1444
1681
441
169
900
256
36
100
1
225
784
1089
676
169
4
400
1225
1764
900
9
841
529
0
121
9
100
484
841
841
400
49
64
625
1521
1444
144
361
729
64
100
49
25
324
784
900
529
121
25
529
1444
1600
441
144
841
196
36
100
1
225
784
1089
676
169
9
400
1296
1681
729
25
841
400
9
121
4
144
576
961
841
400
25
81
729
1681
1369
100
400
676
25
100
36
49
361
784
841
484
81
36
576
1521
1521
324
225
900
196
49
100
4
256
729
961
625
144
9
400
1225
1764
784
16
841
400
9
144
4
169
625
961
784
361
25
100
676
1600
1369
81
484
676
25
100
49
49
361
784
841
484
81
36
576
1521
1600
289
225
841
144
49
81
4
256
841
1024
625
144
16
484
1369
1764
676
49
900
361
9
121
1
169
576
900
784
324
25
100
729
1600
1369
64
484
625
16
100
36
49
361
784
841
484
81
36
576
1521
1521
256
256
841
121
64
64
9
289
784
1024
625
144
16
484
1521
1849
576
100
1024
361
16
100
0
196
729
1024
729
225
0
324
1089
1681
961
0
784
576
0
121
16
81
400
784
784
441
49
36
576
1444
1444
169
361
784
100
81
64
9
289
784
900
576
121
16
529
1521
1764
529
121
961
324
25
100
0
196
676
961
676
196
0
256
1024
1764
961
0
784
576
1
100
9
81
441
841
841
441
64
49
625
1521
1521
225
324
900
144
49
64
4
256
784
961
576
121
9
484
1444
1849
729
49
961
400
16
121
1
169
676
1024
729
289
4
169
900
1681
1225
25
576
676
16
81
16
64
400
784
841
441
81
49
625
1521
1521
256
289
900
169
49
81
4
256
784
1024
576
121
16
529
1521
1764
576
100
961
324
16
100
0
169
676
1024
784
225
0
289
1089
1764
961
0
784
576
1
100
9
81
400
729
784
441
81
36
576
1444
1444
225
324
900
121
81
64
9
256
729
961
576
121
16
529
1444
1764
576
100
900
324
25
121
0
196
729
1024
676
225
0
289
1024
1681
961
0
784
576
0
121
16
100
484
900
841
441
49
64
676
1600
1444
169
361
900
121
64
49
25
289
676
841
529
100
25
576
1521
1681
400
196
961
225
49
121
0
225
784
1024
676
196
1
400
1296
1764
784
25
841
441
4
100
1
144
484
841
784
324
25
81
625
1521
1296
81
484
784
49
100
49
36
324
729
841
484
81
36
576
1521
1600
361
225
961
225
36
81
1
196
729
1024
676
169
4
400
1225
1849
841
9
841
529
0
121
9
121
484
841
841
400
49
64
625
1521
1369
144
400
729
64
100
49
25
289
784
961
529
100
25
529
1444
1600
361
169
900
225
49
121
0
225
784
1089
625
169
9
400
1225
1681
784
16
841
484
4
121
4
144
484
841
784
361
25
64
625
1521
1369
100
441
729
36
81
36
36
324
784
900
529
100
36
576
1521
1600
361
196
841
196
49
81
4
256
729
961
576
144
4
361
1225
1681
841
9
784
441
1
100
1
121
484
841
784
361
36
49
576
1521
1369
144
400
729
64
81
36
16
289
784
900
529
100
36
576
1521
1681
400
196
961
225
49
121
0
256
784
1089
676
169
4
400
1296
1764
784
9
841
441
1
100
1
121
484
841
841
400
49
64
576
1521
1444
144
361
729
49
100
49
36
361
784
961
529
81
36
625
1600
1681
361
256
961
196
64
100
0
225
784
1024
676
169
4
441
1296
1764
729
36
900
441
4
100
0
144
529
841
729
324
25
81
676
1600
1369
81
484
729
49
81
36
36
324
729
900
484
100
36
576
1521
1521
361
196
900
225
49
81
1
225
784
1089
625
169
9
441
1296
1849
841
25
900
441
1
100
1
144
576
900
729
324
25
81
676
1600
1296
81
484
729
36
100
36
36
361
784
900
529
81
36
625
1521
1681
361
196
900
196
64
100
1
256
841
1089
676
169
9
441
1369
1764
784
25
841
441
4
100
1
144
576
900
784
324
25
100
729
1681
1296
64
529
676
25
100
36
49
361
784
841
484
81
36
576
1521
1521
289
256
900
169
64
81
4
256
784
1024
625
144
4
484
1444
1849
784
36
900
441
4
121
1
144
576
900
729
324
25
81
676
1600
1296
64
529
729
36
81
36
49
361
729
841
484
81
36
529
1444
1600
361
196
961
225
36
100
0
256
784
1024
625
144
16
484
1369
1764
729
49
900
441
9
121
1
169
576
900
784
361
25
100
729
1600
1225
49
484
676
25
100
36
49
361
784
841
484
81
36
576
1521
1521
289
256
900
144
64
100
4
256
841
1024
625
144
16
529
1444
1681
576
100
900
324
25
121
1
169
784
1156
729
225
0
324
1089
1681
900
1
784
529
0
144
25
100
484
841
841
400
64
49
625
1521
1444
144
361
784
64
81
64
16
324
729
900
529
100
25
576
1521
1681
441
169
900
256
49
100
0
256
784
1089
676
196
4
361
1225
1849
841
9
841
529
1
144
16
100
529
841
841
441
49
64
625
1600
1444
144
441
784
81
81
49
25
324
729
841
484
100
36
576
1444
1681
361
196
900
196
49
100
1
225
784
1024
625
144
4
441
1296
1764
729
36
841
441
9
121
1
144
529
900
784
361
25
81
676
1600
1296
64
529
729
36
81
36
36
324
729
841
484
100
36
576
1444
1600
324
196
900
196
49
100
4
256
784
1024
676
144
9
484
1369
1849
729
36
841
400
4
100
0
144
529
900
729
324
25
81
676
1600
1296
81
484
729
36
100
49
36
361
841
900
529
81
36
625
1521
1681
361
196
900
225
49
100
1
225
784
1024
625
144
16
441
1296
1764
676
64
900
361
16
121
1
169
625
961
784
324
9
144
784
1600
1225
36
529
576
9
100
25
64
400
841
900
484
81
36
576
1444
1521
289
225
900
169
49
81
4
256
784
1024
625
144
9
484
1369
1764
676
49
900
400
16
144
1
144
576
900
729
289
9
121
729
1600
1225
49
576
676
16
100
36
49
361
784
841
441
81
36
576
1444
1521
289
256
841
144
64
64
9
289
784
1024
576
144
16
484
1444
1764
625
81
961
324
25
121
0
144
676
1024
729
289
1
225
961
1681
1024
4
676
625
1
100
9
81
361
729
784
484
81
25
529
1444
1600
289
256
961
144
64
100
1
256
729
961
625
144
16
484
1369
1764
676
49
900
400
9
121
0
144
576
900
784
289
16
100
729
1600
1296
49
529
625
16
100
16
64
400
784
841
441
64
36
576
1521
1521
256
256
900
144
64
81
4
256
729
1024
625
144
16
441
1369
1764
625
64
961
361
25
121
1
144
676
961
784
289
4
169
841
1600
1156
16
576
625
9
100
16
81
441
784
841
441
64
36
576
1444
1444
256
289
900
144
64
81
9
256
729
961
625
144
16
484
1444
1764
576
64
961
361
16
121
1
144
625
961
729
289
1
169
900
1600
1156
16
576
576
4
100
9
100
441
784
841
400
64
49
576
1444
1444
225
324
841
121
64
64
4
256
784
900
529
121
16
529
1444
1764
576
81
961
324
16
121
0
169
676
961
784
289
9
169
841
1681
1156
25
576
576
9
81
9
81
400
729
784
441
64
49
625
1521
1521
289
256
1024
225
36
81
1
225
676
900
576
169
9
400
1225
1681
729
36
841
361
9
121
1
144
576
900
729
361
25
81
676
1600
1296
64
484
676
36
81
25
49
361
729
841
484
100
49
576
1521
1600
324
225
900
196
64
100
4
256
841
1024
676
169
9
484
1369
1849
676
49
900
361
9
121
1
144
576
961
784
324
16
81
729
1600
1296
81
484
729
36
81
36
49
324
729
841
484
100
25
529
1444
1521
289
256
961
169
64
100
1
225
729
961
625
144
16
484
1369
1764
625
64
961
361
16
121
1
144
625
961
729
289
4
144
784
1681
1225
36
529
625
16
100
25
64
441
841
900
484
100
25
576
1521
1521
256
289
841
100
64
64
9
289
729
900
529
100
25
529
1521
1764
529
100
961
289
25
81
1
196
729
1024
676
225
0
256
1024
1681
961
0
784
576
0
121
16
64
441
841
784
441
64
36
576
1444
1444
196
324
784
121
64
64
9
256
784
900
576
121
25
529
1521
1764
529
121
900
289
25
121
0
196
784
1089
676
196
1
324
1089
1681
961
0
784
576
1
100
9
81
441
841
841
441
49
49
576
1444
1444
256
256
784
121
81
81
9
289
729
961
625
144
16
484
1369
1764
625
81
961
361
16
121
1
169
625
900
729
289
1
169
900
1600
1156
16
576
625
9
81
9
81
400
729
784
441
81
36
576
1444
1521
289
256
900
169
64
100
4
256
784
1024
625
144
16
529
1444
1681
529
121
961
289
25
121
0
196
729
1024
729
225
0
289
1089
1681
961
0
729
576
1
100
16
81
441
784
784
400
49
49
576
1444
1369
169
361
841
81
81
81
9
256
729
961
625
144
9
484
1369
1764
729
49
961
400
9
121
1
144
576
900
784
289
9
121
784
1681
1296
64
484
729
36
100
36
49
361
784
841
484
81
36
576
1521
1521
289
256
961
169
49
100
1
225
784
1024
676
169
9
484
1369
1764
676
49
900
361
9
121
1
144
576
961
729
324
16
100
729
1521
1225
36
529
625
9
100
36
49
361
784
841
441
64
49
576
1444
1444
256
289
900
144
64
81
4
256
784
1024
625
169
9
484
1444
1764
676
49
900
361
16
121
1
169
625
961
729
256
1
169
784
1600
1225
36
529
676
16
81
16
49
361
784
900
484
81
36
576
1444
1444
256
289
900
169
64
81
1
256
729
961
625
144
16
441
1296
1764
729
36
841
400
9
121
1
169
576
961
784
361
25
100
729
1600
1369
49
441
625
16
100
36
49
361
784
841
484
81
36
529
1444
1444
256
256
900
144
64
81
4
289
784
1024
576
121
16
484
1444
1764
625
81
961
361
16
144
4
144
625
1024
729
289
1
256
1024
1600
961
0
729
676
9
100
25
64
361
676
784
441
64
36
576
1444
1521
256
289
961
169
64
81
4
225
729
900
576
121
9
441
1296
1764
676
49
900
400
9
121
1
169
576
841
729
324
25
81
729
1600
1369
81
484
784
49
81
36
36
324
784
841
484
100
25
529
1521
1600
361
225
900
169
49
81
4
256
841
1024
676
169
9
441
1225
1764
841
16
841
441
4
144
9
121
529
900
841
361
36
81
625
1444
1369
121
400
729
49
81
36
36
324
729
841
484
100
25
529
1444
1681
361
196
900
196
49
81
1
225
784
1089
625
144
4
400
1296
1764
784
25
900
441
4
121
1
144
529
900
784
361
25
64
676
1521
1369
100
441
676
36
100
49
36
361
784
961
484
100
25
529
1444
1600
324
225
900
169
49
81
1
256
729
961
625
169
9
400
1369
1849
841
16
900
484
1
81
1
121
484
784
729
361
36
49
625
1521
1369
121
400
729
36
81
36
36
289
729
900
576
121
25
576
1521
1600
361
225
961
196
49
100
1
225
784
1089
625
144
9
441
1296
1764
784
25
900
441
4
100
1
144
576
900
729
361
25
81
729
1600
1296
81
484
729
36
100
36
36
361
784
841
484
100
36
529
1444
1521
289
225
841
121
64
100
4
256
784
1024
625
144
25
529
1444
1681
484
100
900
289
25
121
0
169
729
1089
784
225
0
289
1024
1681
961
0
784
576
1
121
16
81
441
784
784
400
49
49
529
1444
1444
196
361
841
81
81
81
9
256
729
961
576
144
16
484
1369
1764
576
100
900
324
25
121
0
196
729
1024
676
225
0
256
1024
1764
961
0
729
576
1
121
16
81
441
841
841
400
64
49
576
1444
1444
196
324
784
100
81
64
9
256
784
961
576
121
16
529
1444
1681
529
121
900
256
36
121
0
196
784
1089
729
225
0
324
1089
1681
900
1
729
576
0
100
9
81
441
784
784
400
49
64
576
1444
1444
225
324
900
121
64
81
9
256
784
961
529
144
16
529
1521
1764
576
100
961
324
16
81
0
169
676
961
729
256
1
196
900
1681
1156
16
625
576
4
100
9
64
361
784
841
484
81
25
576
1444
1521
289
256
841
144
49
64
9
256
784
961
576
121
9
484
1444
1849
729
36
900
400
9
121
0
144
576
900
784
324
16
100
784
1600
1225
49
529
625
9
121
25
49
400
784
900
529
81
36
576
1444
1521
256
256
900
144
81
81
4
256
841
961
625
144
9
400
1296
1681
729
25
841
400
9
144
1
144
529
900
784
361
25
81
676
1521
1369
81
484
729
49
81
36
36
324
729
841
484
100
25
529
1444
1681
400
196
961
225
49
100
1
225
784
1089
676
169
16
484
1369
1849
676
49
900
400
9
121
1
144
576
961
784
361
25
100
729
1600
1296
64
484
625
16
121
36
49
400
784
784
400
64
36
576
1444
1521
289
256
900
144
64
81
4
256
841
1024
625
144
16
484
1444
1764
576
81
961
324
25
144
1
169
676
1024
784
256
4
225
900
1681
1024
4
676
625
4
100
16
64
400
729
784
441
81
36
529
1444
1521
256
289
900
121
81
81
4
225
784
961
576
121
16
529
1444
1764
576
81
961
324
16
121
0
169
676
1024
729
289
4
196
900
1681
1156
9
676
625
9
100
16
64
400
784
841
441
64
49
625
1444
1444
225
324
841
121
81
81
9
289
784
1024
576
121
16
529
1444
1764
529
121
900
289
49
121
0
225
784
1089
729
225
0
289
1089
1681
900
0
729
529
0
100
16
64
441
784
784
441
49
36
529
1444
1444
196
324
841
100
81
64
16
256
729
961
576
121
16
529
1444
1764
484
144
961
289
36
100
0
225
784
1089
676
196
1
361
1156
1681
900
4
784
529
0
121
9
100
441
784
784
400
49
49
576
1444
1369
144
361
729
64
100
81
9
324
841
1024
529
121
25
576
1444
1600
361
196
900
196
49
100
1
225
784
1024
676
169
9
441
1369
1849
729
36
900
441
4
121
1
144
529
900
784
361
25
81
676
1521
1296
81
484
729
25
100
49
36
361
729
841
484
81
36
576
1444
1521
289
256
961
196
49
100
1
256
729
961
576
144
9
441
1296
1764
729
36
841
441
9
121
1
144
576
900
784
324
16
100
676
1521
1296
64
529
729
36
81
36
49
361
729
841
484
100
36
576
1521
1681
324
225
900
169
64
100
4
289
784
1024
625
144
16
529
1444
1764
576
81
961
324
16
121
0
169
676
1024
729
289
1
196
961
1681
1156
9
676
676
9
121
16
64
400
729
784
400
64
49
576
1444
1444
225
324
961
144
64
81
4
225
729
961
576
121
16
484
1369
1764
576
100
841
289
36
121
0
196
729
1024
729
196
0
256
961
1681
1089
4
729
625
4
121
9
100
441
784
841
441
81
25
529
1444
1521
225
324
841
100
81
64
16
289
784
961
529
121
25
529
1521
1681
441
144
961
225
49
121
0
196
784
1089
729
225
0
324
1089
1764
961
1
841
576
0
100
9
81
400
729
784
400
64
49
576
1444
1444
196
324
841
100
81
64
9
256
784
961
529
121
16
529
1521
1764
576
100
961
324
16
121
0
169
676
1024
729
256
0
256
1024
1681
961
0
729
576
1
100
9
81
400
729
784
441
81
36
576
1521
1521
289
256
900
144
49
64
9
256
784
900
529
121
16
484
1444
1849
625
81
961
361
16
144
1
144
625
1024
729
256
1
225
900
1600
1089
4
676
576
4
100
16
64
441
784
841
441
64
49
576
1444
1444
225
289
841
121
81
81
9
289
784
961
576
121
16
484
1369
1681
625
64
961
361
25
121
0
169
625
1024
676
256
1
196
900
1681
1089
9
625
676
16
100
16
64
400
784
841
441
64
36
576
1444
1444
225
289
841
81
81
81
4
256
784
1024
529
121
25
576
1444
1681
484
121
961
289
36
121
0
169
729
1024
729
225
0
289
1089
1681
961
0
784
576
0
121
25
81
441
841
841
441
49
49
576
1444
1369
169
324
784
81
81
81
9
256
784
961
529
144
16
484
1444
1764
625
81
961
361
25
121
0
169
625
1024
729
256
1
225
900
1681
1089
4
676
625
9
121
16
81
441
841
784
441
64
49
529
1444
1444
225
324
900
121
64
81
4
256
784
961
529
121
16
529
1444
1681
576
100
961
361
25
144
1
169
676
1024
729
225
0
256
1024
1681
1024
0
729
576
1
100
9
81
400
784
784
400
49
49
576
1444
1444
196
361
841
100
64
64
9
256
729
900
576
121
16
484
1444
1764
576
100
961
324
36
144
0
196
729
1024
676
225
0
289
1024
1600
961
0
784
529
0
121
16
100
484
784
841
400
49
64
576
1521
1369
169
361
784
64
64
36
25
289
784
900
529
121
25
529
1521
1681
484
169
900
225
49
100
0
225
784
1024
676
196
0
324
1156
1681
900
4
784
484
1
121
9
100
484
841
784
400
49
64
576
1521
1444
169
361
784
81
64
49
16
289
729
900
529
100
25
576
1521
1681
441
169
961
225
49
121
0
225
729
1024
729
169
1
400
1225
1764
841
25
841
441
4
121
1
144
529
841
784
361
36
64
625
1521
1369
121
441
729
49
81
36
36
324
729
841
484
100
36
529
1444
1600
361
169
900
196
49
100
1
225
784
1089
625
144
9
441
1296
1681
676
36
841
400
9
121
4
144
576
961
784
361
25
100
676
1521
1296
64
484
676
16
100
36
49
361
784
841
484
81
36
576
1521
1521
289
225
841
144
64
81
4
256
841
1024
625
169
9
484
1444
1764
676
49
961
484
1
100
1
144
529
841
729
289
16
100
729
1681
1296
49
529
625
16
100
25
64
400
784
841
441
64
49
576
1444
1444
225
289
841
121
64
64
9
256
784
1024
576
121
16
529
1521
1764
529
100
961
324
25
121
0
196
729
1089
729
225
0
289
1024
1681
961
0
841
625
1
144
16
81
484
841
841
441
49
49
576
1521
1444
225
324
784
81
81
81
9
256
784
961
576
144
16
484
1444
1681
576
100
900
324
36
121
0
196
784
1089
729
225
0
289
1089
1681
961
0
784
576
0
121
16
81
400
784
841
441
81
36
576
1521
1521
225
324
784
100
81
64
16
289
784
961
576
121
16
529
1444
1764
484
144
900
225
49
121
0
225
784
1089
729
196
1
361
1225
1764
841
16
841
441
4
144
9
121
484
784
784
361
49
49
576
1521
1369
121
361
729
49
81
49
36
324
784
900
484
100
25
529
1444
1600
361
196
841
169
64
100
1
256
784
1089
676
169
9
441
1296
1764
784
25
841
400
9
121
1
144
576
900
841
361
36
81
676
1521
1369
100
441
676
25
100
36
49
361
729
841
484
81
36
576
1444
1521
289
256
900
144
64
81
9
256
784
1024
625
144
9
441
1296
1764
676
49
900
361
16
121
1
169
676
961
784
289
9
144
729
1521
1225
49
529
625
9
100
25
49
361
784
900
529
81
36
576
1369
1444
289
256
900
169
64
100
1
225
784
1024
625
144
4
441
1369
1764
676
49
900
361
9
100
1
144
625
900
784
289
16
121
784
1764
1296
49
576
625
9
100
16
64
361
784
841
484
81
36
576
1444
1521
289
289
961
196
49
81
1
196
729
1024
625
169
9
484
1444
1849
676
49
900
361
16
144
1
169
676
1024
841
289
4
169
900
1600
1156
16
625
625
9
121
16
64
400
729
784
441
64
49
576
1444
1444
225
324
841
121
64
81
4
256
784
961
576
121
16
484
1444
1849
625
81
1024
441
9
121
1
144
625
961
729
256
4
196
841
1681
1156
25
576
576
9
100
16
81
484
841
841
441
64
36
576
1444
1600
289
289
1024
169
49
81
4
225
729
961
576
121
25
529
1444
1681
576
100
900
324
25
121
0
169
676
1024
729
256
0
256
1089
1681
961
0
784
625
1
100
16
64
400
729
784
441
64
49
576
1444
1444
196
361
841
81
81
81
9
289
784
1024
576
100
25
576
1444
1681
484
144
961
289
36
121
0
225
784
1089
676
196
1
361
1089
1764
961
1
784
576
0
121
9
100
441
784
784
400
49
64
576
1444
1444
169
361
729
81
81
49
25
289
784
961
529
121
25
576
1444
1764
484
144
961
289
36
100
0
225
729
1024
729
169
1
361
1156
1681
900
4
784
529
0
121
9
100
441
784
784
361
49
49
576
1444
1444
144
361
729
64
100
49
25
289
784
961
529
100
25
529
1444
1600
361
196
900
225
49
121
0
225
841
1089
676
169
9
441
1296
1764
729
36
900
400
9
144
1
121
529
900
729
324
16
81
625
1521
1225
64
484
729
25
121
49
36
361
784
900
529
81
36
576
1369
1521
289
225
900
169
64
100
1
225
784
1024
576
144
9
484
1369
1681
625
81
961
400
16
121
1
144
625
961
784
289
9
144
784
1600
1225
25
576
625
9
100
25
64
400
784
841
441
64
36
576
1444
1444
256
256
841
121
64
81
4
256
784
961
529
144
9
441
1296
1681
676
49
900
361
16
121
1
169
625
961
784
256
9
100
676
1521
1225
64
484
625
25
100
25
49
361
729
841
441
81
25
529
1444
1521
324
225
900
169
64
100
4
256
784
1024
676
144
9
484
1369
1764
676
49
841
361
9
100
0
144
625
961
784
289
9
144
729
1600
1225
36
529
676
16
100
25
64
400
784
784
441
64
49
576
1369
1444
256
289
961
121
64
100
4
256
729
961
625
144
16
484
1444
1764
576
81
1024
361
16
121
1
169
729
1089
729
225
0
289
1024
1681
961
0
784
625
1
121
16
81
441
784
841
400
49
64
576
1521
1444
169
361
784
100
64
49
16
256
729
900
529
121
25
529
1444
1681
400
169
961
225
49
121
0
225
784
1089
676
169
9
400
1225
1764
841
16
841
484
0
100
1
121
484
841
784
361
36
49
625
1521
1369
121
441
729
49
81
49
25
289
784
900
529
100
16
529
1444
1600
361
196
900
225
49
121
0
225
784
1089
625
144
9
441
1225
1681
784
16
900
441
4
121
1
144
529
900
841
361
36
81
625
1521
1369
100
441
729
36
100
49
25
324
729
841
484
81
36
576
1521
1521
324
225
961
196
49
100
1
225
784
1024
625
169
16
529
1521
1764
576
100
1024
361
16
121
1
169
729
1024
676
225
0
289
1024
1600
900
0
729
576
1
121
16
64
400
729
729
441
64
36
529
1444
1444
169
361
841
100
64
64
9
289
729
900
576
121
16
529
1444
1764
529
100
961
289
25
121
0
196
729
1024
676
196
1
324
1089
1681
961
1
784
576
0
121
16
100
441
841
784
400
49
64
576
1521
1369
169
361
784
81
81
49
16
256
784
961
576
144
16
529
1521
1681
484
144
961
256
36
121
0
196
784
1089
676
196
4
441
1296
1764
784
16
841
441
4
144
9
121
484
841
784
361
25
64
625
1521
1369
100
441
784
64
100
49
25
289
729
900
484
81
25
529
1444
1521
361
196
1024
225
36
81
1
225
729
961
625
144
9
400
1296
1764
784
16
841
484
1
121
4
121
484
841
784
361
36
64
625
1444
1296
121
441
676
36
81
36
36
324
784
841
484
81
36
576
1444
1521
361
225
961
225
49
121
0
196
729
1024
676
196
4
400
1225
1764
784
16
900
484
1
121
4
121
529
841
729
361
36
81
